3998.07803 0.99983
3996.64964 0.99983
3995.22124 0.99984
3993.79285 0.99984
3992.36445 0.99985
3990.93605 0.99985
3989.50766 0.99986
3988.07926 0.99987
3986.65087 0.99988
3985.22247 0.99990
3983.79408 0.99991
3982.36568 0.99993
3980.93729 0.99995
3979.50889 0.99998
3978.08050 0.99999
3976.65210 1.00000
3975.22371 1.00000
3973.79531 0.99998
3972.36692 0.99996
3970.93852 0.99993
3969.51013 0.99990
3968.08173 0.99987
3966.65334 0.99983
3965.22494 0.99981
3963.79655 0.99980
3962.36815 0.99980
3960.93976 0.99982
3959.51136 0.99984
3958.08297 0.99987
3956.65457 0.99989
3955.22618 0.99989
3953.79778 0.99989
3952.36939 0.99986
3950.94099 0.99982
3949.51260 0.99976
3948.08420 0.99969
3946.65581 0.99962
3945.22741 0.99956
3943.79901 0.99951
3942.37062 0.99948
3940.94222 0.99947
3939.51383 0.99947
3938.08543 0.99949
3936.65704 0.99951
3935.22864 0.99954
3933.80025 0.99956
3932.37185 0.99958
3930.94346 0.99960
3929.51506 0.99961
3928.08667 0.99962
3926.65827 0.99964
3925.22988 0.99966
3923.80148 0.99969
3922.37309 0.99972
3920.94469 0.99975
3919.51630 0.99976
3918.08790 0.99977
3916.65951 0.99977
3915.23111 0.99977
3913.80272 0.99975
3912.37432 0.99973
3910.94593 0.99971
3909.51753 0.99968
3908.08914 0.99965
3906.66074 0.99962
3905.23235 0.99958
3903.80395 0.99954
3902.37556 0.99950
3900.94716 0.99947
3899.51877 0.99944
3898.09037 0.99942
3896.66197 0.99941
3895.23358 0.99940
3893.80518 0.99941
3892.37679 0.99942
3890.94839 0.99942
3889.52000 0.99942
3888.09160 0.99941
3886.66321 0.99939
3885.23481 0.99937
3883.80642 0.99935
3882.37802 0.99933
3880.94963 0.99932
3879.52123 0.99932
3878.09284 0.99934
3876.66444 0.99938
3875.23605 0.99941
3873.80765 0.99945
3872.37926 0.99948
3870.95086 0.99950
3869.52247 0.99952
3868.09407 0.99953
3866.66568 0.99954
3865.23728 0.99954
3863.80889 0.99954
3862.38049 0.99954
3860.95210 0.99955
3859.52370 0.99954
3858.09531 0.99953
3856.66691 0.99952
3855.23852 0.99949
3853.81012 0.99945
3852.38173 0.99940
3850.95333 0.99935
3849.52493 0.99929
3848.09654 0.99924
3846.66814 0.99920
3845.23975 0.99917
3843.81135 0.99915
3842.38296 0.99913
3840.95456 0.99912
3839.52617 0.99912
3838.09777 0.99913
3836.66938 0.99913
3835.24098 0.99913
3833.81259 0.99912
3832.38419 0.99912
3830.95580 0.99911
3829.52740 0.99911
3828.09901 0.99910
3826.67061 0.99910
3825.24222 0.99909
3823.81382 0.99908
3822.38543 0.99908
3820.95703 0.99909
3819.52864 0.99910
3818.10024 0.99912
3816.67185 0.99915
3815.24345 0.99918
3813.81506 0.99920
3812.38666 0.99922
3810.95827 0.99923
3809.52987 0.99923
3808.10148 0.99922
3806.67308 0.99920
3805.24469 0.99916
3803.81629 0.99913
3802.38789 0.99909
3800.95950 0.99906
3799.53110 0.99904
3798.10271 0.99903
3796.67431 0.99901
3795.24592 0.99899
3793.81752 0.99897
3792.38913 0.99894
3790.96073 0.99892
3789.53234 0.99890
3788.10394 0.99888
3786.67555 0.99887
3785.24715 0.99886
3783.81876 0.99886
3782.39036 0.99887
3780.96197 0.99889
3779.53357 0.99891
3778.10518 0.99893
3776.67678 0.99895
3775.24839 0.99896
3773.81999 0.99895
3772.39160 0.99893
3770.96320 0.99889
3769.53481 0.99884
3768.10641 0.99878
3766.67802 0.99873
3765.24962 0.99870
3763.82123 0.99868
3762.39283 0.99867
3760.96444 0.99867
3759.53604 0.99868
3758.10765 0.99870
3756.67925 0.99872
3755.25085 0.99874
3753.82246 0.99876
3752.39406 0.99877
3750.96567 0.99877
3749.53727 0.99877
3748.10888 0.99875
3746.68048 0.99872
3745.25209 0.99868
3743.82369 0.99864
3742.39530 0.99859
3740.96690 0.99852
3739.53851 0.99846
3738.11011 0.99839
3736.68172 0.99833
3735.25332 0.99827
3733.82493 0.99824
3732.39653 0.99822
3730.96814 0.99822
3729.53974 0.99824
3728.11135 0.99827
3726.68295 0.99832
3725.25456 0.99837
3723.82616 0.99841
3722.39777 0.99844
3720.96937 0.99845
3719.54098 0.99845
3718.11258 0.99844
3716.68419 0.99842
3715.25579 0.99838
3713.82740 0.99835
3712.39900 0.99831
3710.97061 0.99827
3709.54221 0.99824
3708.11381 0.99822
3706.68542 0.99821
3705.25702 0.99821
3703.82863 0.99822
3702.40023 0.99824
3700.97184 0.99827
3699.54344 0.99831
3698.11505 0.99835
3696.68665 0.99840
3695.25826 0.99843
3693.82986 0.99846
3692.40147 0.99847
3690.97307 0.99848
3689.54468 0.99848
3688.11628 0.99847
3686.68789 0.99848
3685.25949 0.99849
3683.83110 0.99852
3682.40270 0.99856
3680.97431 0.99863
3679.54591 0.99871
3678.11752 0.99879
3676.68912 0.99887
3675.26073 0.99893
3673.83233 0.99898
3672.40394 0.99900
3670.97554 0.99899
3669.54715 0.99896
3668.11875 0.99891
3666.69036 0.99885
3665.26196 0.99878
3663.83357 0.99873
3662.40517 0.99869
3660.97677 0.99868
3659.54838 0.99869
3658.11998 0.99871
3656.69159 0.99874
3655.26319 0.99877
3653.83480 0.99879
3652.40640 0.99881
3650.97801 0.99881
3649.54961 0.99880
3648.12122 0.99877
3646.69282 0.99873
3645.26443 0.99869
3643.83603 0.99864
3642.40764 0.99859
3640.97924 0.99854
3639.55085 0.99850
3638.12245 0.99848
3636.69406 0.99846
3635.26566 0.99846
3633.83727 0.99847
3632.40887 0.99849
3630.98048 0.99850
3629.55208 0.99851
3628.12369 0.99851
3626.69529 0.99850
3625.26690 0.99848
3623.83850 0.99845
3622.41011 0.99841
3620.98171 0.99837
3619.55332 0.99832
3618.12492 0.99827
3616.69653 0.99822
3615.26813 0.99818
3613.83973 0.99815
3612.41134 0.99812
3610.98294 0.99809
3609.55455 0.99807
3608.12615 0.99804
3606.69776 0.99801
3605.26936 0.99799
3603.84097 0.99797
3602.41257 0.99797
3600.98418 0.99797
3599.55578 0.99798
3598.12739 0.99800
3596.69899 0.99802
3595.27060 0.99804
3593.84220 0.99804
3592.41381 0.99803
3590.98541 0.99799
3589.55702 0.99793
3588.12862 0.99786
3586.70023 0.99777
3585.27183 0.99768
3583.84344 0.99760
3582.41504 0.99753
3580.98665 0.99747
3579.55825 0.99743
3578.12986 0.99742
3576.70146 0.99742
3575.27307 0.99744
3573.84467 0.99747
3572.41628 0.99749
3570.98788 0.99750
3569.55949 0.99751
3568.13109 0.99752
3566.70269 0.99751
3565.27430 0.99751
3563.84590 0.99751
3562.41751 0.99752
3560.98911 0.99753
3559.56072 0.99755
3558.13232 0.99756
3556.70393 0.99756
3555.27553 0.99756
3553.84714 0.99755
3552.41874 0.99753
3550.99035 0.99750
3549.56195 0.99747
3548.13356 0.99744
3546.70516 0.99742
3545.27677 0.99741
3543.84837 0.99739
3542.41998 0.99738
3540.99158 0.99738
3539.56319 0.99737
3538.13479 0.99736
3536.70640 0.99734
3535.27800 0.99730
3533.84961 0.99725
3532.42121 0.99719
3530.99282 0.99711
3529.56442 0.99704
3528.13603 0.99697
3526.70763 0.99692
3525.27924 0.99688
3523.85084 0.99686
3522.42245 0.99684
3520.99405 0.99683
3519.56565 0.99682
3518.13726 0.99682
3516.70886 0.99681
3515.28047 0.99681
3513.85207 0.99680
3512.42368 0.99680
3510.99528 0.99680
3509.56689 0.99681
3508.13849 0.99682
3506.71010 0.99684
3505.28170 0.99686
3503.85331 0.99688
3502.42491 0.99690
3500.99652 0.99691
3499.56812 0.99691
3498.13973 0.99690
3496.71133 0.99687
3495.28294 0.99684
3493.85454 0.99681
3492.42615 0.99678
3490.99775 0.99675
3489.56936 0.99675
3488.14096 0.99675
3486.71257 0.99677
3485.28417 0.99680
3483.85578 0.99682
3482.42738 0.99685
3480.99899 0.99687
3479.57059 0.99688
3478.14220 0.99688
3476.71380 0.99687
3475.28541 0.99685
3473.85701 0.99683
3472.42861 0.99680
3471.00022 0.99677
3469.57182 0.99675
3468.14343 0.99672
3466.71503 0.99669
3465.28664 0.99667
3463.85824 0.99664
3462.42985 0.99662
3461.00145 0.99661
3459.57306 0.99660
3458.14466 0.99661
3456.71627 0.99663
3455.28787 0.99668
3453.85948 0.99674
3452.43108 0.99682
3451.00269 0.99690
3449.57429 0.99699
3448.14590 0.99707
3446.71750 0.99715
3445.28911 0.99722
3443.86071 0.99727
3442.43232 0.99730
3441.00392 0.99732
3439.57553 0.99731
3438.14713 0.99730
3436.71874 0.99729
3435.29034 0.99727
3433.86195 0.99726
3432.43355 0.99727
3431.00516 0.99728
3429.57676 0.99730
3428.14837 0.99734
3426.71997 0.99738
3425.29157 0.99743
3423.86318 0.99748
3422.43478 0.99754
3421.00639 0.99760
3419.57799 0.99766
3418.14960 0.99771
3416.72120 0.99775
3415.29281 0.99778
3413.86441 0.99779
3412.43602 0.99779
3411.00762 0.99780
3409.57923 0.99781
3408.15083 0.99784
3406.72244 0.99788
3405.29404 0.99794
3403.86565 0.99802
3402.43725 0.99810
3401.00886 0.99820
3399.58046 0.99829
3398.15207 0.99837
3396.72367 0.99843
3395.29528 0.99847
3393.86688 0.99849
3392.43849 0.99849
3391.01009 0.99847
3389.58170 0.99845
3388.15330 0.99843
3386.72491 0.99841
3385.29651 0.99841
3383.86812 0.99842
3382.43972 0.99845
3381.01133 0.99848
3379.58293 0.99851
3378.15453 0.99854
3376.72614 0.99856
3375.29774 0.99857
3373.86935 0.99859
3372.44095 0.99862
3371.01256 0.99865
3369.58416 0.99871
3368.15577 0.99878
3366.72737 0.99887
3365.29898 0.99897
3363.87058 0.99905
3362.44219 0.99913
3361.01379 0.99919
3359.58540 0.99922
3358.15700 0.99922
3356.72861 0.99921
3355.30021 0.99917
3353.87182 0.99912
3352.44342 0.99907
3351.01503 0.99904
3349.58663 0.99901
3348.15824 0.99900
3346.72984 0.99900
3345.30145 0.99902
3343.87305 0.99905
3342.44466 0.99908
3341.01626 0.99912
3339.58787 0.99915
3338.15947 0.99917
3336.73108 0.99918
3335.30268 0.99918
3333.87428 0.99917
3332.44589 0.99917
3331.01749 0.99919
3329.58910 0.99922
3328.16070 0.99927
3326.73231 0.99932
3325.30391 0.99938
3323.87552 0.99943
3322.44712 0.99949
3321.01873 0.99954
3319.59033 0.99958
3318.16194 0.99960
3316.73354 0.99959
3315.30515 0.99955
3313.87675 0.99948
3312.44836 0.99940
3311.01996 0.99932
3309.59157 0.99924
3308.16317 0.99917
3306.73478 0.99912
3305.30638 0.99908
3303.87799 0.99907
3302.44959 0.99909
3301.02120 0.99912
3299.59280 0.99917
3298.16441 0.99924
3296.73601 0.99931
3295.30762 0.99939
3293.87922 0.99948
3292.45083 0.99956
3291.02243 0.99963
3289.59404 0.99969
3288.16564 0.99973
3286.73724 0.99976
3285.30885 0.99976
3283.88045 0.99975
3282.45206 0.99973
3281.02366 0.99968
3279.59527 0.99963
3278.16687 0.99956
3276.73848 0.99948
3275.31008 0.99942
3273.88169 0.99938
3272.45329 0.99937
3271.02490 0.99938
3269.59650 0.99941
3268.16811 0.99946
3266.73971 0.99951
3265.31132 0.99956
3263.88292 0.99960
3262.45453 0.99963
3261.02613 0.99964
3259.59774 0.99964
3258.16934 0.99963
3256.74095 0.99962
3255.31255 0.99960
3253.88416 0.99959
3252.45576 0.99960
3251.02737 0.99963
3249.59897 0.99969
3248.17058 0.99976
3246.74218 0.99984
3245.31379 0.99991
3243.88539 0.99997
3242.45700 1.00000
3241.02860 1.00000
3239.60020 0.99998
3238.17181 0.99994
3236.74341 0.99989
3235.31502 0.99984
3233.88662 0.99979
3232.45823 0.99976
3231.02983 0.99974
3229.60144 0.99973
3228.17304 0.99974
3226.74465 0.99977
3225.31625 0.99980
3223.88786 0.99984
3222.45946 0.99987
3221.03107 0.99991
3219.60267 0.99994
3218.17428 0.99996
3216.74588 0.99998
3215.31749 1.00000
3213.88909 1.00000
3212.46070 1.00000
3211.03230 0.99999
3209.60391 0.99997
3208.17551 0.99994
3206.74712 0.99991
3205.31872 0.99987
3203.89033 0.99984
3202.46193 0.99981
3201.03354 0.99979
3199.60514 0.99977
3198.17675 0.99976
3196.74835 0.99975
3195.31996 0.99974
3193.89156 0.99974
3192.46316 0.99974
3191.03477 0.99973
3189.60637 0.99971
3188.17798 0.99969
3186.74958 0.99966
3185.32119 0.99963
3183.89279 0.99958
3182.46440 0.99952
3181.03600 0.99946
3179.60761 0.99940
3178.17921 0.99934
3176.75082 0.99928
3175.32242 0.99924
3173.89403 0.99921
3172.46563 0.99920
3171.03724 0.99920
3169.60884 0.99920
3168.18045 0.99921
3166.75205 0.99920
3165.32366 0.99918
3163.89526 0.99913
3162.46687 0.99905
3161.03847 0.99896
3159.61008 0.99884
3158.18168 0.99872
3156.75329 0.99861
3155.32489 0.99852
3153.89650 0.99844
3152.46810 0.99838
3151.03971 0.99834
3149.61131 0.99831
3148.18292 0.99828
3146.75452 0.99825
3145.32612 0.99821
3143.89773 0.99816
3142.46933 0.99810
3141.04094 0.99802
3139.61254 0.99795
3138.18415 0.99787
3136.75575 0.99779
3135.32736 0.99772
3133.89896 0.99766
3132.47057 0.99759
3131.04217 0.99753
3129.61378 0.99745
3128.18538 0.99737
3126.75699 0.99729
3125.32859 0.99720
3123.90020 0.99710
3122.47180 0.99700
3121.04341 0.99689
3119.61501 0.99679
3118.18662 0.99670
3116.75822 0.99661
3115.32983 0.99653
3113.90143 0.99647
3112.47304 0.99642
3111.04464 0.99639
3109.61625 0.99638
3108.18785 0.99638
3106.75946 0.99638
3105.33106 0.99639
3103.90267 0.99639
3102.47427 0.99639
3101.04588 0.99636
3099.61748 0.99632
3098.18908 0.99625
3096.76069 0.99617
3095.33229 0.99608
3093.90390 0.99599
3092.47550 0.99588
3091.04711 0.99579
3089.61871 0.99570
3088.19032 0.99563
3086.76192 0.99557
3085.33353 0.99554
3083.90513 0.99551
3082.47674 0.99550
3081.04834 0.99550
3079.61995 0.99550
3078.19155 0.99550
3076.76316 0.99549
3075.33476 0.99548
3073.90637 0.99546
3072.47797 0.99542
3071.04958 0.99536
3069.62118 0.99530
3068.19279 0.99522
3066.76439 0.99514
3065.33600 0.99507
3063.90760 0.99501
3062.47921 0.99498
3061.05081 0.99497
3059.62242 0.99498
3058.19402 0.99501
3056.76563 0.99505
3055.33723 0.99509
3053.90884 0.99513
3052.48044 0.99515
3051.05204 0.99515
3049.62365 0.99513
3048.19525 0.99510
3046.76686 0.99505
3045.33846 0.99499
3043.91007 0.99493
3042.48167 0.99487
3041.05328 0.99481
3039.62488 0.99477
3038.19649 0.99473
3036.76809 0.99470
3035.33970 0.99468
3033.91130 0.99467
3032.48291 0.99468
3031.05451 0.99469
3029.62612 0.99472
3028.19772 0.99475
3026.76933 0.99478
3025.34093 0.99481
3023.91254 0.99484
3022.48414 0.99485
3021.05575 0.99486
3019.62735 0.99487
3018.19896 0.99486
3016.77056 0.99485
3015.34217 0.99484
3013.91377 0.99484
3012.48538 0.99484
3011.05698 0.99485
3009.62859 0.99487
3008.20019 0.99489
3006.77180 0.99491
3005.34340 0.99492
3003.91500 0.99493
3002.48661 0.99493
3001.05821 0.99492
2999.62982 0.99491
2998.20142 0.99489
2996.77303 0.99487
2995.34463 0.99486
2993.91624 0.99485
2992.48784 0.99484
2991.05945 0.99482
2989.63105 0.99481
2988.20266 0.99478
2986.77426 0.99475
2985.34587 0.99470
2983.91747 0.99464
2982.48908 0.99457
2981.06068 0.99450
2979.63229 0.99442
2978.20389 0.99433
2976.77550 0.99423
2975.34710 0.99414
2973.91871 0.99404
2972.49031 0.99393
2971.06192 0.99382
2969.63352 0.99371
2968.20513 0.99360
2966.77673 0.99349
2965.34834 0.99340
2963.91994 0.99333
2962.49155 0.99329
2961.06315 0.99328
2959.63476 0.99331
2958.20636 0.99338
2956.77796 0.99347
2955.34957 0.99358
2953.92117 0.99370
2952.49278 0.99382
2951.06438 0.99393
2949.63599 0.99402
2948.20759 0.99408
2946.77920 0.99412
2945.35080 0.99413
2943.92241 0.99413
2942.49401 0.99411
2941.06562 0.99409
2939.63722 0.99406
2938.20883 0.99402
2936.78043 0.99399
2935.35204 0.99395
2933.92364 0.99392
2932.49525 0.99388
2931.06685 0.99385
2929.63846 0.99382
2928.21006 0.99380
2926.78167 0.99380
2925.35327 0.99382
2923.92488 0.99386
2922.49648 0.99392
2921.06809 0.99399
2919.63969 0.99407
2918.21130 0.99416
2916.78290 0.99426
2915.35451 0.99435
2913.92611 0.99443
2912.49772 0.99451
2911.06932 0.99457
2909.64092 0.99463
2908.21253 0.99469
2906.78413 0.99474
2905.35574 0.99480
2903.92734 0.99485
2902.49895 0.99491
2901.07055 0.99496
2899.64216 0.99502
2898.21376 0.99507
2896.78537 0.99512
2895.35697 0.99517
2893.92858 0.99521
2892.50018 0.99526
2891.07179 0.99530
2889.64339 0.99535
2888.21500 0.99539
2886.78660 0.99544
2885.35821 0.99548
2883.92981 0.99552
2882.50142 0.99554
2881.07302 0.99556
2879.64463 0.99557
2878.21623 0.99557
2876.78784 0.99556
2875.35944 0.99555
2873.93105 0.99554
2872.50265 0.99552
2871.07426 0.99551
2869.64586 0.99550
2868.21747 0.99549
2866.78907 0.99549
2865.36068 0.99549
2863.93228 0.99548
2862.50388 0.99548
2861.07549 0.99547
2859.64709 0.99546
2858.21870 0.99546
2856.79030 0.99547
2855.36191 0.99549
2853.93351 0.99552
2852.50512 0.99556
2851.07672 0.99562
2849.64833 0.99568
2848.21993 0.99576
2846.79154 0.99583
2845.36314 0.99591
2843.93475 0.99598
2842.50635 0.99605
2841.07796 0.99611
2839.64956 0.99617
2838.22117 0.99623
2836.79277 0.99628
2835.36438 0.99633
2833.93598 0.99638
2832.50759 0.99642
2831.07919 0.99646
2829.65080 0.99649
2828.22240 0.99652
2826.79401 0.99654
2825.36561 0.99655
2823.93722 0.99656
2822.50882 0.99656
2821.08043 0.99656
2819.65203 0.99657
2818.22364 0.99658
2816.79524 0.99660
2815.36684 0.99662
2813.93845 0.99665
2812.51005 0.99668
2811.08166 0.99671
2809.65326 0.99674
2808.22487 0.99677
2806.79647 0.99680
2805.36808 0.99682
2803.93968 0.99684
2802.51129 0.99686
2801.08289 0.99688
2799.65450 0.99689
2798.22610 0.99691
2796.79771 0.99692
2795.36931 0.99693
2793.94092 0.99694
2792.51252 0.99696
2791.08413 0.99697
2789.65573 0.99699
2788.22734 0.99702
2786.79894 0.99705
2785.37055 0.99708
2783.94215 0.99711
2782.51376 0.99714
2781.08536 0.99716
2779.65697 0.99719
2778.22857 0.99721
2776.80018 0.99722
2775.37178 0.99723
2773.94339 0.99724
2772.51499 0.99725
2771.08660 0.99727
2769.65820 0.99728
2768.22980 0.99730
2766.80141 0.99733
2765.37301 0.99735
2763.94462 0.99738
2762.51622 0.99740
2761.08783 0.99741
2759.65943 0.99743
2758.23104 0.99743
2756.80264 0.99744
2755.37425 0.99745
2753.94585 0.99746
2752.51746 0.99748
2751.08906 0.99749
2749.66067 0.99750
2748.23227 0.99751
2746.80388 0.99752
2745.37548 0.99752
2743.94709 0.99752
2742.51869 0.99751
2741.09030 0.99751
2739.66190 0.99751
2738.23351 0.99752
2736.80511 0.99753
2735.37672 0.99755
2733.94832 0.99758
2732.51993 0.99761
2731.09153 0.99763
2729.66314 0.99766
2728.23474 0.99768
2726.80635 0.99770
2725.37795 0.99772
2723.94956 0.99772
2722.52116 0.99773
2721.09276 0.99774
2719.66437 0.99774
2718.23597 0.99775
2716.80758 0.99777
2715.37918 0.99779
2713.95079 0.99781
2712.52239 0.99783
2711.09400 0.99785
2709.66560 0.99788
2708.23721 0.99789
2706.80881 0.99791
2705.38042 0.99792
2703.95202 0.99793
2702.52363 0.99793
2701.09523 0.99794
2699.66684 0.99794
2698.23844 0.99795
2696.81005 0.99795
2695.38165 0.99796
2693.95326 0.99796
2692.52486 0.99797
2691.09647 0.99797
2689.66807 0.99798
2688.23968 0.99800
2686.81128 0.99802
2685.38289 0.99804
2683.95449 0.99806
2682.52610 0.99808
2681.09770 0.99810
2679.66931 0.99813
2678.24091 0.99815
2676.81252 0.99817
2675.38412 0.99819
2673.95572 0.99821
2672.52733 0.99822
2671.09893 0.99823
2669.67054 0.99824
2668.24214 0.99824
2666.81375 0.99824
2665.38535 0.99824
2663.95696 0.99824
2662.52856 0.99824
2661.10017 0.99824
2659.67177 0.99824
2658.24338 0.99825
2656.81498 0.99825
2655.38659 0.99827
2653.95819 0.99828
2652.52980 0.99830
2651.10140 0.99831
2649.67301 0.99832
2648.24461 0.99832
2646.81622 0.99833
2645.38782 0.99833
2643.95943 0.99833
2642.53103 0.99834
2641.10264 0.99835
2639.67424 0.99837
2638.24585 0.99839
2636.81745 0.99841
2635.38906 0.99843
2633.96066 0.99846
2632.53227 0.99848
2631.10387 0.99849
2629.67548 0.99850
2628.24708 0.99851
2626.81868 0.99851
2625.39029 0.99851
2623.96189 0.99850
2622.53350 0.99850
2621.10510 0.99850
2619.67671 0.99851
2618.24831 0.99852
2616.81992 0.99854
2615.39152 0.99857
2613.96313 0.99860
2612.53473 0.99863
2611.10634 0.99867
2609.67794 0.99869
2608.24955 0.99871
2606.82115 0.99872
2605.39276 0.99872
2603.96436 0.99871
2602.53597 0.99870
2601.10757 0.99868
2599.67918 0.99868
2598.25078 0.99868
2596.82239 0.99870
2595.39399 0.99873
2593.96560 0.99877
2592.53720 0.99883
2591.10881 0.99889
2589.68041 0.99895
2588.25202 0.99899
2586.82362 0.99902
2585.39523 0.99902
2583.96683 0.99901
2582.53843 0.99898
2581.11004 0.99893
2579.68164 0.99888
2578.25325 0.99882
2576.82485 0.99877
2575.39646 0.99873
2573.96806 0.99870
2572.53967 0.99870
2571.11127 0.99872
2569.68288 0.99875
2568.25448 0.99881
2566.82609 0.99887
2565.39769 0.99894
2563.96930 0.99900
2562.54090 0.99905
2561.11251 0.99907
2559.68411 0.99908
2558.25572 0.99905
2556.82732 0.99901
2555.39893 0.99896
2553.97053 0.99890
2552.54214 0.99886
2551.11374 0.99882
2549.68535 0.99882
2548.25695 0.99883
2546.82856 0.99888
2545.40016 0.99894
2543.97177 0.99901
2542.54337 0.99908
2541.11498 0.99914
2539.68658 0.99918
2538.25819 0.99921
2536.82979 0.99922
2535.40139 0.99921
2533.97300 0.99920
2532.54460 0.99920
2531.11621 0.99921
2529.68781 0.99922
2528.25942 0.99924
2526.83102 0.99927
2525.40263 0.99931
2523.97423 0.99935
2522.54584 0.99938
2521.11744 0.99942
2519.68905 0.99944
2518.26065 0.99946
2516.83226 0.99948
2515.40386 0.99949
2513.97547 0.99949
2512.54707 0.99950
2511.11868 0.99950
2509.69028 0.99950
2508.26189 0.99950
2506.83349 0.99950
2505.40510 0.99949
2503.97670 0.99947
2502.54831 0.99946
2501.11991 0.99944
2499.69152 0.99942
2498.26312 0.99941
2496.83473 0.99938
2495.40633 0.99936
2493.97794 0.99935
2492.54954 0.99933
2491.12115 0.99932
2489.69275 0.99931
2488.26435 0.99931
2486.83596 0.99932
2485.40756 0.99934
2483.97917 0.99938
2482.55077 0.99941
2481.12238 0.99945
2479.69398 0.99949
2478.26559 0.99952
2476.83719 0.99954
2475.40880 0.99955
2473.98040 0.99956
2472.55201 0.99956
2471.12361 0.99955
2469.69522 0.99954
2468.26682 0.99953
2466.83843 0.99953
2465.41003 0.99953
2463.98164 0.99954
2462.55324 0.99956
2461.12485 0.99958
2459.69645 0.99961
2458.26806 0.99963
2456.83966 0.99964
2455.41127 0.99965
2453.98287 0.99965
2452.55448 0.99964
2451.12608 0.99962
2449.69769 0.99960
2448.26929 0.99959
2446.84090 0.99958
2445.41250 0.99958
2443.98411 0.99959
2442.55571 0.99959
2441.12731 0.99959
2439.69892 0.99959
2438.27052 0.99958
2436.84213 0.99956
2435.41373 0.99953
2433.98534 0.99950
2432.55694 0.99946
2431.12855 0.99942
2429.70015 0.99938
2428.27176 0.99935
2426.84336 0.99934
2425.41497 0.99933
2423.98657 0.99934
2422.55818 0.99935
2421.12978 0.99938
2419.70139 0.99940
2418.27299 0.99943
2416.84460 0.99945
2415.41620 0.99948
2413.98781 0.99950
2412.55941 0.99952
2411.13102 0.99953
2409.70262 0.99954
2408.27423 0.99955
2406.84583 0.99955
2405.41744 0.99955
2403.98904 0.99955
2402.56065 0.99954
2401.13225 0.99953
2399.70386 0.99952
2398.27546 0.99951
2396.84707 0.99950
2395.41867 0.99949
2393.99027 0.99947
2392.56188 0.99946
2391.13348 0.99944
2389.70509 0.99942
2388.27669 0.99939
2386.84830 0.99936
2385.41990 0.99932
2383.99151 0.99928
2382.56311 0.99923
2381.13472 0.99916
2379.70632 0.99907
2378.27793 0.99894
2376.84953 0.99876
2375.42114 0.99855
2373.99274 0.99831
2372.56435 0.99803
2371.13595 0.99774
2369.70756 0.99745
2368.27916 0.99718
2366.85077 0.99695
2365.42237 0.99678
2363.99398 0.99668
2362.56558 0.99667
2361.13719 0.99673
2359.70879 0.99687
2358.28040 0.99707
2356.85200 0.99729
2355.42361 0.99752
2353.99521 0.99772
2352.56682 0.99788
2351.13842 0.99796
2349.71003 0.99798
2348.28163 0.99792
2346.85323 0.99781
2345.42484 0.99767
2343.99644 0.99752
2342.56805 0.99739
2341.13965 0.99730
2339.71126 0.99727
2338.28286 0.99730
2336.85447 0.99739
2335.42607 0.99752
2333.99768 0.99768
2332.56928 0.99784
2331.14089 0.99798
2329.71249 0.99809
2328.28410 0.99814
2326.85570 0.99816
2325.42731 0.99814
2323.99891 0.99809
2322.57052 0.99803
2321.14212 0.99798
2319.71373 0.99794
2318.28533 0.99794
2316.85694 0.99796
2315.42854 0.99802
2314.00015 0.99810
2312.57175 0.99821
2311.14336 0.99834
2309.71496 0.99847
2308.28657 0.99861
2306.85817 0.99874
2305.42978 0.99886
2304.00138 0.99897
2302.57299 0.99908
2301.14459 0.99917
2299.71619 0.99926
2298.28780 0.99933
2296.85940 0.99939
2295.43101 0.99943
2294.00261 0.99946
2292.57422 0.99947
2291.14582 0.99947
2289.71743 0.99946
2288.28903 0.99944
2286.86064 0.99941
2285.43224 0.99938
2284.00385 0.99934
2282.57545 0.99930
2281.14706 0.99927
2279.71866 0.99923
2278.29027 0.99921
2276.86187 0.99919
2275.43348 0.99919
2274.00508 0.99921
2272.57669 0.99924
2271.14829 0.99928
2269.71990 0.99932
2268.29150 0.99935
2266.86311 0.99938
2265.43471 0.99939
2264.00632 0.99939
2262.57792 0.99938
2261.14953 0.99936
2259.72113 0.99933
2258.29274 0.99929
2256.86434 0.99926
2255.43595 0.99923
2254.00755 0.99923
2252.57915 0.99924
2251.15076 0.99927
2249.72236 0.99932
2248.29397 0.99937
2246.86557 0.99942
2245.43718 0.99946
2244.00878 0.99948
2242.58039 0.99949
2241.15199 0.99947
2239.72360 0.99945
2238.29520 0.99941
2236.86681 0.99938
2235.43841 0.99935
2234.01002 0.99931
2232.58162 0.99927
2231.15323 0.99923
2229.72483 0.99918
2228.29644 0.99913
2226.86804 0.99908
2225.43965 0.99904
2224.01125 0.99900
2222.58286 0.99897
2221.15446 0.99894
2219.72607 0.99893
2218.29767 0.99893
2216.86928 0.99894
2215.44088 0.99896
2214.01249 0.99900
2212.58409 0.99904
2211.15570 0.99908
2209.72730 0.99913
2208.29891 0.99917
2206.87051 0.99921
2205.44211 0.99925
2204.01372 0.99927
2202.58532 0.99928
2201.15693 0.99926
2199.72853 0.99921
2198.30014 0.99914
2196.87174 0.99907
2195.44335 0.99898
2194.01495 0.99891
2192.58656 0.99884
2191.15816 0.99881
2189.72977 0.99882
2188.30137 0.99886
2186.87298 0.99894
2185.44458 0.99905
2184.01619 0.99918
2182.58779 0.99930
2181.15940 0.99940
2179.73100 0.99948
2178.30261 0.99951
2176.87421 0.99951
2175.44582 0.99944
2174.01742 0.99931
2172.58903 0.99913
2171.16063 0.99892
2169.73224 0.99870
2168.30384 0.99850
2166.87545 0.99834
2165.44705 0.99823
2164.01866 0.99818
2162.59026 0.99822
2161.16187 0.99834
2159.73347 0.99854
2158.30507 0.99879
2156.87668 0.99907
2155.44828 0.99936
2154.01989 0.99961
2152.59149 0.99982
2151.16310 0.99995
2149.73470 1.00000
2148.30631 0.99999
2146.87791 0.99992
2145.44952 0.99979
2144.02112 0.99962
2142.59273 0.99945
2141.16433 0.99928
2139.73594 0.99916
2138.30754 0.99909
2136.87915 0.99905
2135.45075 0.99903
2134.02236 0.99904
2132.59396 0.99907
2131.16557 0.99911
2129.73717 0.99914
2128.30878 0.99914
2126.88038 0.99912
2125.45199 0.99908
2124.02359 0.99901
2122.59520 0.99894
2121.16680 0.99888
2119.73841 0.99883
2118.31001 0.99881
2116.88162 0.99881
2115.45322 0.99884
2114.02483 0.99890
2112.59643 0.99896
2111.16803 0.99903
2109.73964 0.99909
2108.31124 0.99914
2106.88285 0.99916
2105.45445 0.99915
2104.02606 0.99912
2102.59766 0.99907
2101.16927 0.99901
2099.74087 0.99895
2098.31248 0.99889
2096.88408 0.99883
2095.45569 0.99878
2094.02729 0.99875
2092.59890 0.99875
2091.17050 0.99877
2089.74211 0.99882
2088.31371 0.99888
2086.88532 0.99895
2085.45692 0.99902
2084.02853 0.99909
2082.60013 0.99914
2081.17174 0.99918
2079.74334 0.99919
2078.31495 0.99919
2076.88655 0.99917
2075.45816 0.99913
2074.02976 0.99909
2072.60137 0.99904
2071.17297 0.99899
2069.74458 0.99894
2068.31618 0.99890
2066.88779 0.99888
2065.45939 0.99888
2064.03099 0.99889
2062.60260 0.99892
2061.17420 0.99896
2059.74581 0.99901
2058.31741 0.99907
2056.88902 0.99915
2055.46062 0.99925
2054.03223 0.99936
2052.60383 0.99948
2051.17544 0.99960
2049.74704 0.99971
2048.31865 0.99981
2046.89025 0.99989
2045.46186 0.99993
2044.03346 0.99993
2042.60507 0.99989
2041.17667 0.99980
2039.74828 0.99968
2038.31988 0.99954
2036.89149 0.99937
2035.46309 0.99920
2034.03470 0.99903
2032.60630 0.99889
2031.17791 0.99878
2029.74951 0.99871
2028.32112 0.99869
2026.89272 0.99870
2025.46433 0.99873
2024.03593 0.99878
2022.60754 0.99883
2021.17914 0.99888
2019.75075 0.99892
2018.32235 0.99896
2016.89395 0.99901
2015.46556 0.99907
2014.03716 0.99912
2012.60877 0.99918
2011.18037 0.99925
2009.75198 0.99932
2008.32358 0.99941
2006.89519 0.99949
2005.46679 0.99956
2004.03840 0.99959
2002.61000 0.99958
2001.18161 0.99955
1999.75321 0.99949
1998.32482 0.99941
1996.89642 0.99932
1995.46803 0.99923
1994.03963 0.99915
1992.61124 0.99909
1991.18284 0.99904
1989.75445 0.99901
1988.32605 0.99898
1986.89766 0.99895
1985.46926 0.99892
1984.04087 0.99888
1982.61247 0.99884
1981.18408 0.99879
1979.75568 0.99876
1978.32729 0.99874
1976.89889 0.99876
1975.47050 0.99883
1974.04210 0.99894
1972.61371 0.99909
1971.18531 0.99927
1969.75691 0.99947
1968.32852 0.99965
1966.90012 0.99980
1965.47173 0.99990
1964.04333 0.99993
1962.61494 0.99992
1961.18654 0.99985
1959.75815 0.99975
1958.32975 0.99962
1956.90136 0.99948
1955.47296 0.99933
1954.04457 0.99919
1952.61617 0.99907
1951.18778 0.99898
1949.75938 0.99893
1948.33099 0.99891
1946.90259 0.99892
1945.47420 0.99896
1944.04580 0.99902
1942.61741 0.99908
1941.18901 0.99917
1939.76062 0.99926
1938.33222 0.99938
1936.90383 0.99950
1935.47543 0.99962
1934.04704 0.99974
1932.61864 0.99984
1931.19025 0.99992
1929.76185 0.99997
1928.33346 1.00000
1926.90506 0.99999
1925.47667 0.99997
1924.04827 0.99992
1922.61987 0.99985
1921.19148 0.99977
1919.76308 0.99969
1918.33469 0.99960
1916.90629 0.99951
1915.47790 0.99943
1914.04950 0.99937
1912.62111 0.99931
1911.19271 0.99927
1909.76432 0.99925
1908.33592 0.99924
1906.90753 0.99924
1905.47913 0.99925
1904.05074 0.99927
1902.62234 0.99930
1901.19395 0.99934
1899.76555 0.99939
1898.33716 0.99943
1896.90876 0.99947
1895.48037 0.99949
1894.05197 0.99950
1892.62358 0.99949
1891.19518 0.99946
1889.76679 0.99941
1888.33839 0.99936
1886.91000 0.99932
1885.48160 0.99929
1884.05321 0.99928
1882.62481 0.99929
1881.19642 0.99931
1879.76802 0.99935
1878.33963 0.99940
1876.91123 0.99943
1875.48283 0.99946
1874.05444 0.99946
1872.62604 0.99945
1871.19765 0.99942
1869.76925 0.99938
1868.34086 0.99934
1866.91246 0.99930
1865.48407 0.99928
1864.05567 0.99927
1862.62728 0.99929
1861.19888 0.99932
1859.77049 0.99936
1858.34209 0.99939
1856.91370 0.99943
1855.48530 0.99945
1854.05691 0.99945
1852.62851 0.99945
1851.20012 0.99944
1849.77172 0.99943
1848.34333 0.99942
1846.91493 0.99941
1845.48654 0.99941
1844.05814 0.99942
1842.62975 0.99944
1841.20135 0.99946
1839.77296 0.99949
1838.34456 0.99953
1836.91617 0.99956
1835.48777 0.99958
1834.05938 0.99959
1832.63098 0.99960
1831.20258 0.99959
1829.77419 0.99958
1828.34579 0.99956
1826.91740 0.99954
1825.48900 0.99952
1824.06061 0.99951
1822.63221 0.99950
1821.20382 0.99951
1819.77542 0.99952
1818.34703 0.99956
1816.91863 0.99960
1815.49024 0.99965
1814.06184 0.99970
1812.63345 0.99974
1811.20505 0.99977
1809.77666 0.99978
1808.34826 0.99977
1806.91987 0.99975
1805.49147 0.99972
1804.06308 0.99968
1802.63468 0.99964
1801.20629 0.99961
1799.77789 0.99958
1798.34950 0.99957
1796.92110 0.99956
1795.49271 0.99956
1794.06431 0.99957
1792.63592 0.99959
1791.20752 0.99962
1789.77913 0.99966
1788.35073 0.99970
1786.92234 0.99974
1785.49394 0.99979
1784.06554 0.99982
1782.63715 0.99985
1781.20875 0.99986
1779.78036 0.99986
1778.35196 0.99985
1776.92357 0.99983
1775.49517 0.99980
1774.06678 0.99977
1772.63838 0.99974
1771.20999 0.99972
1769.78159 0.99971
1768.35320 0.99970
1766.92480 0.99969
1765.49641 0.99969
1764.06801 0.99969
1762.63962 0.99968
1761.21122 0.99966
1759.78283 0.99964
1758.35443 0.99961
1756.92604 0.99959
1755.49764 0.99958
1754.06925 0.99957
1752.64085 0.99957
1751.21246 0.99957
1749.78406 0.99958
1748.35567 0.99959
1746.92727 0.99961
1745.49888 0.99963
1744.07048 0.99966
1742.64209 0.99968
1741.21369 0.99971
1739.78530 0.99974
1738.35690 0.99977
1736.92850 0.99979
1735.50011 0.99981
1734.07171 0.99981
1732.64332 0.99980
1731.21492 0.99979
1729.78653 0.99977
1728.35813 0.99976
1726.92974 0.99975
1725.50134 0.99976
1724.07295 0.99979
1722.64455 0.99982
1721.21616 0.99986
1719.78776 0.99991
1718.35937 0.99995
1716.93097 0.99998
1715.50258 1.00000
1714.07418 1.00000
1712.64579 0.99999
1711.21739 0.99997
1709.78900 0.99995
1708.36060 0.99993
1706.93221 0.99990
1705.50381 0.99988
1704.07542 0.99986
1702.64702 0.99983
1701.21863 0.99980
1699.79023 0.99975
1698.36184 0.99968
1696.93344 0.99960
1695.50505 0.99950
1694.07665 0.99939
1692.64826 0.99927
1691.21986 0.99914
1689.79146 0.99901
1688.36307 0.99888
1686.93467 0.99875
1685.50628 0.99862
1684.07788 0.99849
1682.64949 0.99837
1681.22109 0.99825
1679.79270 0.99812
1678.36430 0.99800
1676.93591 0.99787
1675.50751 0.99773
1674.07912 0.99757
1672.65072 0.99739
1671.22233 0.99719
1669.79393 0.99696
1668.36554 0.99670
1666.93714 0.99641
1665.50875 0.99611
1664.08035 0.99580
1662.65196 0.99549
1661.22356 0.99520
1659.79517 0.99492
1658.36677 0.99467
1656.93838 0.99447
1655.50998 0.99430
1654.08159 0.99417
1652.65319 0.99408
1651.22480 0.99402
1649.79640 0.99400
1648.36801 0.99402
1646.93961 0.99406
1645.51122 0.99413
1644.08282 0.99422
1642.65442 0.99432
1641.22603 0.99443
1639.79763 0.99454
1638.36924 0.99465
1636.94084 0.99475
1635.51245 0.99485
1634.08405 0.99494
1632.65566 0.99504
1631.22726 0.99514
1629.79887 0.99524
1628.37047 0.99535
1626.94208 0.99547
1625.51368 0.99559
1624.08529 0.99571
1622.65689 0.99583
1621.22850 0.99593
1619.80010 0.99601
1618.37171 0.99607
1616.94331 0.99611
1615.51492 0.99614
1614.08652 0.99615
1612.65813 0.99615
1611.22973 0.99614
1609.80134 0.99613
1608.37294 0.99611
1606.94455 0.99607
1605.51615 0.99602
1604.08776 0.99594
1602.65936 0.99584
1601.23097 0.99569
1599.80257 0.99552
1598.37418 0.99531
1596.94578 0.99507
1595.51738 0.99480
1594.08899 0.99452
1592.66059 0.99421
1591.23220 0.99389
1589.80380 0.99356
1588.37541 0.99322
1586.94701 0.99289
1585.51862 0.99256
1584.09022 0.99225
1582.66183 0.99196
1581.23343 0.99168
1579.80504 0.99142
1578.37664 0.99118
1576.94825 0.99095
1575.51985 0.99074
1574.09146 0.99053
1572.66306 0.99034
1571.23467 0.99016
1569.80627 0.98999
1568.37788 0.98985
1566.94948 0.98973
1565.52109 0.98963
1564.09269 0.98957
1562.66430 0.98954
1561.23590 0.98954
1559.80751 0.98957
1558.37911 0.98962
1556.95072 0.98970
1555.52232 0.98979
1554.09393 0.98991
1552.66553 0.99006
1551.23714 0.99023
1549.80874 0.99044
1548.38034 0.99068
1546.95195 0.99097
1545.52355 0.99129
1544.09516 0.99164
1542.66676 0.99201
1541.23837 0.99238
1539.80997 0.99276
1538.38158 0.99312
1536.95318 0.99346
1535.52479 0.99378
1534.09639 0.99406
1532.66800 0.99433
1531.23960 0.99457
1529.81121 0.99480
1528.38281 0.99502
1526.95442 0.99524
1525.52602 0.99546
1524.09763 0.99569
1522.66923 0.99592
1521.24084 0.99615
1519.81244 0.99638
1518.38405 0.99659
1516.95565 0.99679
1515.52726 0.99697
1514.09886 0.99714
1512.67047 0.99729
1511.24207 0.99743
1509.81368 0.99757
1508.38528 0.99770
1506.95689 0.99784
1505.52849 0.99799
1504.10010 0.99815
1502.67170 0.99830
1501.24330 0.99846
1499.81491 0.99861
1498.38651 0.99874
1496.95812 0.99885
1495.52972 0.99895
1494.10133 0.99902
1492.67293 0.99907
1491.24454 0.99912
1489.81614 0.99915
1488.38775 0.99920
1486.95935 0.99924
1485.53096 0.99929
1484.10256 0.99935
1482.67417 0.99941
1481.24577 0.99945
1479.81738 0.99949
1478.38898 0.99952
1476.96059 0.99952
1475.53219 0.99951
1474.10380 0.99948
1472.67540 0.99944
1471.24701 0.99939
1469.81861 0.99934
1468.39022 0.99929
1466.96182 0.99925
1465.53343 0.99921
1464.10503 0.99917
1462.67664 0.99913
1461.24824 0.99909
1459.81985 0.99905
1458.39145 0.99900
1456.96306 0.99896
1455.53466 0.99891
1454.10626 0.99886
1452.67787 0.99881
1451.24947 0.99877
1449.82108 0.99872
1448.39268 0.99867
1446.96429 0.99862
1445.53589 0.99857
1444.10750 0.99852
1442.67910 0.99848
1441.25071 0.99845
1439.82231 0.99842
1438.39392 0.99841
1436.96552 0.99841
1435.53713 0.99841
1434.10873 0.99842
1432.68034 0.99841
1431.25194 0.99840
1429.82355 0.99836
1428.39515 0.99831
1426.96676 0.99823
1425.53836 0.99814
1424.10997 0.99802
1422.68157 0.99788
1421.25318 0.99773
1419.82478 0.99757
1418.39639 0.99740
1416.96799 0.99722
1415.53960 0.99704
1414.11120 0.99685
1412.68281 0.99665
1411.25441 0.99645
1409.82602 0.99625
1408.39762 0.99605
1406.96922 0.99585
1405.54083 0.99567
1404.11243 0.99550
1402.68404 0.99535
1401.25564 0.99521
1399.82725 0.99510
1398.39885 0.99501
1396.97046 0.99493
1395.54206 0.99485
1394.11367 0.99479
1392.68527 0.99474
1391.25688 0.99471
1389.82848 0.99469
1388.40009 0.99470
1386.97169 0.99474
1385.54330 0.99481
1384.11490 0.99493
1382.68651 0.99508
1381.25811 0.99527
1379.82972 0.99549
1378.40132 0.99574
1376.97293 0.99600
1375.54453 0.99628
1374.11614 0.99655
1372.68774 0.99680
1371.25935 0.99704
1369.83095 0.99726
1368.40256 0.99745
1366.97416 0.99762
1365.54577 0.99777
1364.11737 0.99791
1362.68898 0.99804
1361.26058 0.99816
1359.83218 0.99826
1358.40379 0.99836
1356.97539 0.99845
1355.54700 0.99853
1354.11860 0.99861
1352.69021 0.99868
1351.26181 0.99875
1349.83342 0.99882
1348.40502 0.99890
1346.97663 0.99897
1345.54823 0.99905
1344.11984 0.99914
1342.69144 0.99922
1341.26305 0.99931
1339.83465 0.99938
1338.40626 0.99945
1336.97786 0.99951
1335.54947 0.99955
1334.12107 0.99958
1332.69268 0.99960
1331.26428 0.99961
1329.83589 0.99961
1328.40749 0.99960
1326.97910 0.99959
1325.55070 0.99958
1324.12231 0.99956
1322.69391 0.99955
1321.26552 0.99955
1319.83712 0.99955
1318.40873 0.99955
1316.98033 0.99956
1315.55194 0.99957
1314.12354 0.99958
1312.69514 0.99958
1311.26675 0.99957
1309.83835 0.99955
1308.40996 0.99951
1306.98156 0.99946
1305.55317 0.99940
1304.12477 0.99933
1302.69638 0.99926
1301.26798 0.99920
1299.83959 0.99914
1298.41119 0.99909
1296.98280 0.99904
1295.55440 0.99901
1294.12601 0.99898
1292.69761 0.99895
1291.26922 0.99891
1289.84082 0.99887
1288.41243 0.99882
1286.98403 0.99877
1285.55564 0.99873
1284.12724 0.99870
1282.69885 0.99869
1281.27045 0.99869
1279.84206 0.99871
1278.41366 0.99873
1276.98527 0.99873
1275.55687 0.99870
1274.12848 0.99862
1272.70008 0.99847
1271.27169 0.99826
1269.84329 0.99798
1268.41490 0.99765
1266.98650 0.99731
1265.55810 0.99698
1264.12971 0.99671
1262.70131 0.99653
1261.27292 0.99645
1259.84452 0.99648
1258.41613 0.99663
1256.98773 0.99688
1255.55934 0.99719
1254.13094 0.99755
1252.70255 0.99790
1251.27415 0.99824
1249.84576 0.99854
1248.41736 0.99879
1246.98897 0.99898
1245.56057 0.99913
1244.13218 0.99924
1242.70378 0.99933
1241.27539 0.99939
1239.84699 0.99945
1238.41860 0.99950
1236.99020 0.99954
1235.56181 0.99957
1234.13341 0.99960
1232.70502 0.99962
1231.27662 0.99964
1229.84823 0.99966
1228.41983 0.99969
1226.99144 0.99972
1225.56304 0.99976
1224.13465 0.99980
1222.70625 0.99984
1221.27786 0.99987
1219.84946 0.99990
1218.42106 0.99993
1216.99267 0.99994
1215.56427 0.99995
1214.13588 0.99995
1212.70748 0.99995
1211.27909 0.99995
1209.85069 0.99994
1208.42230 0.99994
1206.99390 0.99994
1205.56551 0.99994
1204.13711 0.99994
1202.70872 0.99994
1201.28032 0.99994
1199.85193 0.99994
1198.42353 0.99994
1196.99514 0.99993
1195.56674 0.99993
1194.13835 0.99993
1192.70995 0.99993
1191.28156 0.99993
1189.85316 0.99993
1188.42477 0.99993
1186.99637 0.99994
1185.56798 0.99996
1184.13958 0.99997
1182.71119 0.99998
1181.28279 0.99999
1179.85440 1.00000
1178.42600 1.00000
1176.99761 0.99999
1175.56921 0.99998
1174.14082 0.99995
1172.71242 0.99993
1171.28402 0.99991
1169.85563 0.99989
1168.42723 0.99988
1166.99884 0.99989
1165.57044 0.99989
1164.14205 0.99991
1162.71365 0.99993
1161.28526 0.99994
1159.85686 0.99995
1158.42847 0.99996
1157.00007 0.99995
1155.57168 0.99993
1154.14328 0.99990
1152.71489 0.99985
1151.28649 0.99979
1149.85810 0.99973
1148.42970 0.99967
1147.00131 0.99961
1145.57291 0.99956
1144.14452 0.99951
1142.71612 0.99948
1141.28773 0.99946
1139.85933 0.99944
1138.43094 0.99943
1137.00254 0.99942
1135.57415 0.99941
1134.14575 0.99941
1132.71736 0.99940
1131.28896 0.99939
1129.86057 0.99937
1128.43217 0.99933
1127.00378 0.99929
1125.57538 0.99923
1124.14698 0.99915
1122.71859 0.99905
1121.29019 0.99893
1119.86180 0.99880
1118.43340 0.99864
1117.00501 0.99847
1115.57661 0.99829
1114.14822 0.99811
1112.71982 0.99794
1111.29143 0.99777
1109.86303 0.99762
1108.43464 0.99748
1107.00624 0.99735
1105.57785 0.99723
1104.14945 0.99712
1102.72106 0.99701
1101.29266 0.99690
1099.86427 0.99678
1098.43587 0.99668
1097.00748 0.99658
1095.57908 0.99651
1094.15069 0.99646
1092.72229 0.99644
1091.29390 0.99646
1089.86550 0.99652
1088.43711 0.99662
1087.00871 0.99674
1085.58032 0.99689
1084.15192 0.99704
1082.72353 0.99720
1081.29513 0.99734
1079.86673 0.99748
1078.43834 0.99759
1077.00994 0.99768
1075.58155 0.99775
1074.15315 0.99780
1072.72476 0.99784
1071.29636 0.99787
1069.86797 0.99789
1068.43957 0.99792
1067.01118 0.99795
1065.58278 0.99798
1064.15439 0.99802
1062.72599 0.99806
1061.29760 0.99809
1059.86920 0.99812
1058.44081 0.99814
1057.01241 0.99814
1055.58402 0.99813
1054.15562 0.99811
1052.72723 0.99806
1051.29883 0.99798
1049.87044 0.99790
1048.44204 0.99780
1047.01365 0.99769
1045.58525 0.99758
1044.15686 0.99747
1042.72846 0.99738
1041.30007 0.99730
1039.87167 0.99724
1038.44328 0.99720
1037.01488 0.99718
1035.58649 0.99718
1034.15809 0.99718
1032.72969 0.99720
1031.30130 0.99721
1029.87290 0.99721
1028.44451 0.99720
1027.01611 0.99719
1025.58772 0.99717
1024.15932 0.99716
1022.73093 0.99716
1021.30253 0.99717
1019.87414 0.99722
1018.44574 0.99729
1017.01735 0.99739
1015.58895 0.99751
1014.16056 0.99765
1012.73216 0.99781
1011.30377 0.99798
1009.87537 0.99815
1008.44698 0.99831
1007.01858 0.99847
1005.59019 0.99862
1004.16179 0.99876
1002.73340 0.99889
1001.30500 0.99900
999.87661 0.99911
998.44821 0.99920
997.01982 0.99928
995.59142 0.99935
994.16303 0.99940
992.73463 0.99944
991.30624 0.99945
989.87784 0.99946
988.44945 0.99944
987.02105 0.99941
985.59265 0.99937
984.16426 0.99933
982.73586 0.99929
981.30747 0.99926
979.87907 0.99924
978.45068 0.99923
977.02228 0.99924
975.59389 0.99926
974.16549 0.99929
972.73710 0.99934
971.30870 0.99939
969.88031 0.99944
968.45191 0.99949
967.02352 0.99952
965.59512 0.99955
964.16673 0.99956
962.73833 0.99956
961.30994 0.99954
959.88154 0.99953
958.45315 0.99951
957.02475 0.99949
955.59636 0.99948
954.16796 0.99946
952.73957 0.99945
951.31117 0.99944
949.88278 0.99943
948.45438 0.99942
947.02599 0.99941
945.59759 0.99940
944.16920 0.99939
942.74080 0.99938
941.31241 0.99937
939.88401 0.99935
938.45561 0.99934
937.02722 0.99933
935.59882 0.99932
934.17043 0.99931
932.74203 0.99929
931.31364 0.99928
929.88524 0.99927
928.45685 0.99926
927.02845 0.99926
925.60006 0.99925
924.17166 0.99924
922.74327 0.99924
921.31487 0.99925
919.88648 0.99926
918.45808 0.99928
917.02969 0.99931
915.60129 0.99934
914.17290 0.99937
912.74450 0.99939
911.31611 0.99941
909.88771 0.99941
908.45932 0.99939
907.03092 0.99937
905.60253 0.99933
904.17413 0.99929
902.74574 0.99925
901.31734 0.99921
899.88895 0.99918
898.46055 0.99915
897.03216 0.99914
895.60376 0.99913
894.17537 0.99913
892.74697 0.99915
891.31857 0.99917
889.89018 0.99920
888.46178 0.99922
887.03339 0.99925
885.60499 0.99927
884.17660 0.99929
882.74820 0.99931
881.31981 0.99932
879.89141 0.99931
878.46302 0.99930
877.03462 0.99929
875.60623 0.99928
874.17783 0.99927
872.74944 0.99926
871.32104 0.99927
869.89265 0.99928
868.46425 0.99931
867.03586 0.99933
865.60746 0.99934
864.17907 0.99933
862.75067 0.99931
861.32228 0.99926
859.89388 0.99920
858.46549 0.99914
857.03709 0.99908
855.60870 0.99902
854.18030 0.99898
852.75191 0.99895
851.32351 0.99892
849.89512 0.99890
848.46672 0.99887
847.03833 0.99884
845.60993 0.99881
844.18153 0.99878
842.75314 0.99875
841.32474 0.99872
839.89635 0.99871
838.46795 0.99872
837.03956 0.99875
835.61116 0.99878
834.18277 0.99881
832.75437 0.99883
831.32598 0.99883
829.89758 0.99879
828.46919 0.99873
827.04079 0.99864
825.61240 0.99853
824.18400 0.99841
822.75561 0.99829
821.32721 0.99818
819.89882 0.99808
818.47042 0.99799
817.04203 0.99790
815.61363 0.99780
814.18524 0.99769
812.75684 0.99757
811.32845 0.99743
809.90005 0.99727
808.47166 0.99712
807.04326 0.99697
805.61487 0.99683
804.18647 0.99672
802.75808 0.99665
801.32968 0.99663
799.90129 0.99666
798.47289 0.99673
797.04449 0.99685
795.61610 0.99699
794.18770 0.99716
792.75931 0.99735
791.33091 0.99754
789.90252 0.99773
788.47412 0.99790
787.04573 0.99805
785.61733 0.99816
784.18894 0.99825
782.76054 0.99831
781.33215 0.99836
779.90375 0.99840
778.47536 0.99842
777.04696 0.99845
775.61857 0.99849
774.19017 0.99854
772.76178 0.99860
771.33338 0.99867
769.90499 0.99874
768.47659 0.99881
767.04820 0.99888
765.61980 0.99893
764.19141 0.99897
762.76301 0.99901
761.33462 0.99903
759.90622 0.99905
758.47783 0.99906
757.04943 0.99906
755.62104 0.99906
754.19264 0.99906
752.76425 0.99906
751.33585 0.99906
749.90745 0.99907
748.47906 0.99907
747.05066 0.99907
745.62227 0.99907
744.19387 0.99906
742.76548 0.99907
741.33708 0.99909
739.90869 0.99914
738.48029 0.99921
737.05190 0.99930
735.62350 0.99942
734.19511 0.99956
732.76671 0.99970
731.33832 0.99983
729.90992 0.99993
728.48153 0.99998
727.05313 1.00000
725.62474 0.99998
724.19634 0.99992
722.76795 0.99983
721.33955 0.99973
719.91116 0.99964
718.48276 0.99956
717.05437 0.99952
715.62597 0.99952
714.19758 0.99955
712.76918 0.99961
711.34079 0.99967
709.91239 0.99973
708.48400 0.99975
707.05560 0.99974
705.62721 0.99970
704.19881 0.99965
702.77041 0.99958
701.34202 0.99950
699.91362 0.99942
698.48523 0.99934
697.05683 0.99928
695.62844 0.99924
694.20004 0.99923
692.77165 0.99923
691.34325 0.99926
689.91486 0.99929
688.48646 0.99934
687.05807 0.99938
685.62967 0.99941
684.20128 0.99943
682.77288 0.99944
681.34449 0.99945
679.91609 0.99948
678.48770 0.99952
677.05930 0.99959
675.63091 0.99968
674.20251 0.99978
672.77412 0.99989
671.34572 0.99999
669.91733 1.00008
668.48893 1.00016
667.06054 1.00021
665.63214 1.00023
664.20375 1.00022
662.77535 1.00017
661.34696 1.00010
659.91856 1.00000
658.49017 0.99990
657.06177 0.99980
655.63337 0.99971
654.20498 0.99963
652.77658 0.99958
651.34819 0.99954
649.91979 0.99952
648.49140 0.99952
647.06300 0.99955
645.63461 0.99961
644.20621 0.99968
642.77782 0.99976
641.34942 0.99984
639.92103 0.99991
638.49263 0.99997
637.06424 0.99999
635.63584 1.00000
634.20745 0.99999
632.77905 0.99997
631.35066 0.99992
629.92226 0.99985
628.49387 0.99976
627.06547 0.99966
625.63708 0.99955
624.20868 0.99943
622.78029 0.99932
621.35189 0.99921
619.92350 0.99912
618.49510 0.99904
617.06671 0.99899
615.63831 0.99898
614.20992 0.99899
612.78152 0.99902
611.35313 0.99907
609.92473 0.99910
608.49633 0.99912
607.06794 0.99914
605.63954 0.99915
604.21115 0.99916
602.78275 0.99919
601.35436 0.99924
599.92596 0.99931
598.49757 0.99942
597.06917 0.99953
595.64078 0.99964
594.21238 0.99970
592.78399 0.99970
591.35559 0.99963
589.92720 0.99951
588.49880 0.99936
587.07041 0.99920
585.64201 0.99906
584.21362 0.99898
582.78522 0.99898
581.35683 0.99906
579.92843 0.99921
578.50004 0.99940
577.07164 0.99960
575.64325 0.99977
574.21485 0.99989
572.78646 0.99991
571.35806 0.99982
569.92967 0.99963
568.50127 0.99937
567.07288 0.99909
565.64448 0.99883
564.21609 0.99861
562.78769 0.99846
561.35929 0.99841
559.93090 0.99845
558.50250 0.99857
557.07411 0.99872
555.64571 0.99885
554.21732 0.99895
552.78892 0.99899
551.36053 0.99898
549.93213 0.99894
548.50374 0.99886
547.07534 0.99878
545.64695 0.99872
544.21855 0.99873
542.79016 0.99880
541.36176 0.99894
539.93337 0.99915
538.50497 0.99938
537.07658 0.99960
535.64818 0.99976
534.21979 0.99982
532.79139 0.99975
531.36300 0.99955
529.93460 0.99926
528.50621 0.99890
527.07781 0.99852
525.64942 0.99817
524.22102 0.99788
522.79263 0.99770
521.36423 0.99763
519.93584 0.99767
518.50744 0.99777
517.07905 0.99790
515.65065 0.99803
514.22225 0.99815
512.79386 0.99824
511.36546 0.99827
509.93707 0.99822
508.50867 0.99808
507.08028 0.99785
505.65188 0.99756
504.22349 0.99723
502.79509 0.99691
501.36670 0.99660
499.93830 0.99629
498.50991 0.99594
497.08151 0.99553
495.65312 0.99507
494.22472 0.99457
492.79633 0.99406
491.36793 0.99357
489.93954 0.99316
488.51114 0.99289
487.08275 0.99284
485.65435 0.99303
484.22596 0.99344
482.79756 0.99406
481.36917 0.99484
479.94077 0.99571
478.51238 0.99659
477.08398 0.99735
475.65559 0.99790
474.22719 0.99819
472.79880 0.99823
471.37040 0.99808
469.94201 0.99779
468.51361 0.99746
467.08521 0.99720
465.65682 0.99711
464.22842 0.99725
462.80003 0.99761
461.37163 0.99813
459.94324 0.99871
458.51484 0.99927
457.08645 0.99968
455.65805 0.99987
454.22966 0.99977
452.80126 0.99938
451.37287 0.99874
449.94447 0.99790
448.51608 0.99700
447.08768 0.99614
445.65929 0.99546
444.23089 0.99502
442.80250 0.99483
441.37410 0.99485
439.94571 0.99503
438.51731 0.99528
437.08892 0.99553
435.66052 0.99573
434.23213 0.99586
432.80373 0.99596
431.37534 0.99607
429.94694 0.99627
428.51855 0.99656
427.09015 0.99695
425.66176 0.99744
424.23336 0.99801
422.80497 0.99865
421.37657 0.99925
419.94817 0.99972
418.51978 0.99996
417.09138 1.00000
415.66299 1.00000
414.23459 0.99987
412.80620 0.99968
411.37780 0.99948
409.94941 0.99931
408.52101 0.99924
407.09262 0.99937
405.66422 0.99949
404.23583 0.99962
402.80743 0.99975
401.37904 0.99987
399.95064 1.00000
