3998.07803 1.00000
3996.64964 1.00000
3995.22124 1.00000
3993.79285 1.00000
3992.36445 1.00000
3990.93605 1.00000
3989.50766 1.00000
3988.07926 1.00000
3986.65087 1.00000
3985.22247 0.99999
3983.79408 0.99998
3982.36568 0.99996
3980.93729 0.99995
3979.50889 0.99993
3978.08050 0.99992
3976.65210 0.99991
3975.22371 0.99991
3973.79531 0.99991
3972.36692 0.99992
3970.93852 0.99994
3969.51013 0.99995
3968.08173 0.99996
3966.65334 0.99997
3965.22494 0.99997
3963.79655 0.99997
3962.36815 0.99997
3960.93976 0.99996
3959.51136 0.99995
3958.08297 0.99993
3956.65457 0.99991
3955.22618 0.99989
3953.79778 0.99987
3952.36939 0.99985
3950.94099 0.99983
3949.51260 0.99981
3948.08420 0.99980
3946.65581 0.99978
3945.22741 0.99977
3943.79901 0.99975
3942.37062 0.99975
3940.94222 0.99975
3939.51383 0.99976
3938.08543 0.99977
3936.65704 0.99979
3935.22864 0.99981
3933.80025 0.99983
3932.37185 0.99985
3930.94346 0.99987
3929.51506 0.99990
3928.08667 0.99992
3926.65827 0.99993
3925.22988 0.99995
3923.80148 0.99995
3922.37309 0.99995
3920.94469 0.99995
3919.51630 0.99995
3918.08790 0.99995
3916.65951 0.99994
3915.23111 0.99993
3913.80272 0.99991
3912.37432 0.99987
3910.94593 0.99983
3909.51753 0.99978
3908.08914 0.99973
3906.66074 0.99968
3905.23235 0.99963
3903.80395 0.99959
3902.37556 0.99956
3900.94716 0.99954
3899.51877 0.99955
3898.09037 0.99958
3896.66197 0.99963
3895.23358 0.99969
3893.80518 0.99976
3892.37679 0.99983
3890.94839 0.99990
3889.52000 0.99995
3888.09160 0.99998
3886.66321 0.99999
3885.23481 0.99998
3883.80642 0.99996
3882.37802 0.99991
3880.94963 0.99986
3879.52123 0.99980
3878.09284 0.99974
3876.66444 0.99970
3875.23605 0.99967
3873.80765 0.99965
3872.37926 0.99965
3870.95086 0.99967
3869.52247 0.99970
3868.09407 0.99973
3866.66568 0.99977
3865.23728 0.99980
3863.80889 0.99982
3862.38049 0.99983
3860.95210 0.99983
3859.52370 0.99983
3858.09531 0.99982
3856.66691 0.99981
3855.23852 0.99981
3853.81012 0.99981
3852.38173 0.99983
3850.95333 0.99985
3849.52493 0.99987
3848.09654 0.99989
3846.66814 0.99990
3845.23975 0.99991
3843.81135 0.99991
3842.38296 0.99989
3840.95456 0.99986
3839.52617 0.99981
3838.09777 0.99976
3836.66938 0.99972
3835.24098 0.99968
3833.81259 0.99964
3832.38419 0.99963
3830.95580 0.99962
3829.52740 0.99962
3828.09901 0.99963
3826.67061 0.99965
3825.24222 0.99966
3823.81382 0.99968
3822.38543 0.99970
3820.95703 0.99972
3819.52864 0.99974
3818.10024 0.99976
3816.67185 0.99979
3815.24345 0.99981
3813.81506 0.99984
3812.38666 0.99987
3810.95827 0.99989
3809.52987 0.99991
3808.10148 0.99992
3806.67308 0.99992
3805.24469 0.99990
3803.81629 0.99987
3802.38789 0.99984
3800.95950 0.99979
3799.53110 0.99974
3798.10271 0.99969
3796.67431 0.99965
3795.24592 0.99962
3793.81752 0.99959
3792.38913 0.99958
3790.96073 0.99957
3789.53234 0.99956
3788.10394 0.99957
3786.67555 0.99958
3785.24715 0.99959
3783.81876 0.99962
3782.39036 0.99964
3780.96197 0.99967
3779.53357 0.99971
3778.10518 0.99975
3776.67678 0.99980
3775.24839 0.99985
3773.81999 0.99990
3772.39160 0.99994
3770.96320 0.99998
3769.53481 1.00000
3768.10641 1.00000
3766.67802 0.99999
3765.24962 0.99996
3763.82123 0.99991
3762.39283 0.99985
3760.96444 0.99977
3759.53604 0.99967
3758.10765 0.99958
3756.67925 0.99948
3755.25085 0.99940
3753.82246 0.99932
3752.39406 0.99927
3750.96567 0.99922
3749.53727 0.99918
3748.10888 0.99916
3746.68048 0.99913
3745.25209 0.99911
3743.82369 0.99909
3742.39530 0.99905
3740.96690 0.99900
3739.53851 0.99894
3738.11011 0.99885
3736.68172 0.99875
3735.25332 0.99866
3733.82493 0.99856
3732.39653 0.99849
3730.96814 0.99843
3729.53974 0.99840
3728.11135 0.99840
3726.68295 0.99842
3725.25456 0.99847
3723.82616 0.99854
3722.39777 0.99862
3720.96937 0.99871
3719.54098 0.99879
3718.11258 0.99886
3716.68419 0.99891
3715.25579 0.99894
3713.82740 0.99895
3712.39900 0.99895
3710.97061 0.99894
3709.54221 0.99892
3708.11381 0.99890
3706.68542 0.99888
3705.25702 0.99887
3703.82863 0.99887
3702.40023 0.99887
3700.97184 0.99888
3699.54344 0.99890
3698.11505 0.99892
3696.68665 0.99894
3695.25826 0.99897
3693.82986 0.99900
3692.40147 0.99905
3690.97307 0.99910
3689.54468 0.99916
3688.11628 0.99922
3686.68789 0.99929
3685.25949 0.99935
3683.83110 0.99942
3682.40270 0.99949
3680.97431 0.99955
3679.54591 0.99960
3678.11752 0.99964
3676.68912 0.99967
3675.26073 0.99969
3673.83233 0.99971
3672.40394 0.99973
3670.97554 0.99975
3669.54715 0.99977
3668.11875 0.99978
3666.69036 0.99980
3665.26196 0.99981
3663.83357 0.99981
3662.40517 0.99982
3660.97677 0.99981
3659.54838 0.99980
3658.11998 0.99979
3656.69159 0.99977
3655.26319 0.99975
3653.83480 0.99972
3652.40640 0.99969
3650.97801 0.99965
3649.54961 0.99961
3648.12122 0.99956
3646.69282 0.99952
3645.26443 0.99946
3643.83603 0.99941
3642.40764 0.99934
3640.97924 0.99927
3639.55085 0.99920
3638.12245 0.99912
3636.69406 0.99905
3635.26566 0.99897
3633.83727 0.99889
3632.40887 0.99882
3630.98048 0.99874
3629.55208 0.99868
3628.12369 0.99862
3626.69529 0.99859
3625.26690 0.99857
3623.83850 0.99856
3622.41011 0.99855
3620.98171 0.99855
3619.55332 0.99856
3618.12492 0.99855
3616.69653 0.99855
3615.26813 0.99853
3613.83973 0.99851
3612.41134 0.99847
3610.98294 0.99842
3609.55455 0.99836
3608.12615 0.99830
3606.69776 0.99824
3605.26936 0.99819
3603.84097 0.99816
3602.41257 0.99813
3600.98418 0.99812
3599.55578 0.99811
3598.12739 0.99811
3596.69899 0.99811
3595.27060 0.99811
3593.84220 0.99811
3592.41381 0.99811
3590.98541 0.99812
3589.55702 0.99812
3588.12862 0.99813
3586.70023 0.99814
3585.27183 0.99816
3583.84344 0.99819
3582.41504 0.99823
3580.98665 0.99827
3579.55825 0.99831
3578.12986 0.99834
3576.70146 0.99837
3575.27307 0.99839
3573.84467 0.99839
3572.41628 0.99837
3570.98788 0.99835
3569.55949 0.99832
3568.13109 0.99828
3566.70269 0.99824
3565.27430 0.99821
3563.84590 0.99818
3562.41751 0.99815
3560.98911 0.99813
3559.56072 0.99811
3558.13232 0.99809
3556.70393 0.99808
3555.27553 0.99807
3553.84714 0.99806
3552.41874 0.99803
3550.99035 0.99800
3549.56195 0.99796
3548.13356 0.99791
3546.70516 0.99787
3545.27677 0.99782
3543.84837 0.99779
3542.41998 0.99776
3540.99158 0.99774
3539.56319 0.99774
3538.13479 0.99773
3536.70640 0.99773
3535.27800 0.99773
3533.84961 0.99773
3532.42121 0.99772
3530.99282 0.99770
3529.56442 0.99766
3528.13603 0.99760
3526.70763 0.99754
3525.27924 0.99746
3523.85084 0.99740
3522.42245 0.99734
3520.99405 0.99730
3519.56565 0.99727
3518.13726 0.99726
3516.70886 0.99724
3515.28047 0.99723
3513.85207 0.99721
3512.42368 0.99720
3510.99528 0.99718
3509.56689 0.99716
3508.13849 0.99712
3506.71010 0.99708
3505.28170 0.99703
3503.85331 0.99698
3502.42491 0.99692
3500.99652 0.99688
3499.56812 0.99684
3498.13973 0.99680
3496.71133 0.99676
3495.28294 0.99672
3493.85454 0.99669
3492.42615 0.99665
3490.99775 0.99663
3489.56936 0.99661
3488.14096 0.99659
3486.71257 0.99658
3485.28417 0.99657
3483.85578 0.99655
3482.42738 0.99654
3480.99899 0.99652
3479.57059 0.99650
3478.14220 0.99648
3476.71380 0.99646
3475.28541 0.99644
3473.85701 0.99642
3472.42861 0.99641
3471.00022 0.99641
3469.57182 0.99642
3468.14343 0.99642
3466.71503 0.99642
3465.28664 0.99640
3463.85824 0.99637
3462.42985 0.99633
3461.00145 0.99628
3459.57306 0.99622
3458.14466 0.99615
3456.71627 0.99609
3455.28787 0.99603
3453.85948 0.99599
3452.43108 0.99596
3451.00269 0.99595
3449.57429 0.99596
3448.14590 0.99599
3446.71750 0.99602
3445.28911 0.99606
3443.86071 0.99610
3442.43232 0.99613
3441.00392 0.99615
3439.57553 0.99615
3438.14713 0.99615
3436.71874 0.99614
3435.29034 0.99612
3433.86195 0.99611
3432.43355 0.99608
3431.00516 0.99605
3429.57676 0.99602
3428.14837 0.99599
3426.71997 0.99597
3425.29157 0.99595
3423.86318 0.99594
3422.43478 0.99593
3421.00639 0.99593
3419.57799 0.99593
3418.14960 0.99593
3416.72120 0.99594
3415.29281 0.99596
3413.86441 0.99599
3412.43602 0.99603
3411.00762 0.99606
3409.57923 0.99610
3408.15083 0.99614
3406.72244 0.99618
3405.29404 0.99622
3403.86565 0.99627
3402.43725 0.99631
3401.00886 0.99636
3399.58046 0.99640
3398.15207 0.99643
3396.72367 0.99646
3395.29528 0.99648
3393.86688 0.99650
3392.43849 0.99651
3391.01009 0.99653
3389.58170 0.99654
3388.15330 0.99655
3386.72491 0.99657
3385.29651 0.99658
3383.86812 0.99659
3382.43972 0.99660
3381.01133 0.99662
3379.58293 0.99663
3378.15453 0.99664
3376.72614 0.99665
3375.29774 0.99664
3373.86935 0.99663
3372.44095 0.99661
3371.01256 0.99660
3369.58416 0.99660
3368.15577 0.99662
3366.72737 0.99665
3365.29898 0.99670
3363.87058 0.99676
3362.44219 0.99685
3361.01379 0.99694
3359.58540 0.99705
3358.15700 0.99716
3356.72861 0.99726
3355.30021 0.99735
3353.87182 0.99743
3352.44342 0.99748
3351.01503 0.99751
3349.58663 0.99752
3348.15824 0.99751
3346.72984 0.99749
3345.30145 0.99747
3343.87305 0.99745
3342.44466 0.99743
3341.01626 0.99743
3339.58787 0.99743
3338.15947 0.99744
3336.73108 0.99747
3335.30268 0.99750
3333.87428 0.99753
3332.44589 0.99756
3331.01749 0.99758
3329.58910 0.99759
3328.16070 0.99760
3326.73231 0.99760
3325.30391 0.99761
3323.87552 0.99762
3322.44712 0.99765
3321.01873 0.99770
3319.59033 0.99776
3318.16194 0.99783
3316.73354 0.99791
3315.30515 0.99799
3313.87675 0.99808
3312.44836 0.99815
3311.01996 0.99820
3309.59157 0.99823
3308.16317 0.99823
3306.73478 0.99821
3305.30638 0.99818
3303.87799 0.99815
3302.44959 0.99811
3301.02120 0.99807
3299.59280 0.99805
3298.16441 0.99803
3296.73601 0.99803
3295.30762 0.99803
3293.87922 0.99803
3292.45083 0.99804
3291.02243 0.99806
3289.59404 0.99807
3288.16564 0.99810
3286.73724 0.99813
3285.30885 0.99818
3283.88045 0.99824
3282.45206 0.99831
3281.02366 0.99840
3279.59527 0.99849
3278.16687 0.99859
3276.73848 0.99868
3275.31008 0.99876
3273.88169 0.99882
3272.45329 0.99884
3271.02490 0.99885
3269.59650 0.99883
3268.16811 0.99880
3266.73971 0.99877
3265.31132 0.99874
3263.88292 0.99872
3262.45453 0.99872
3261.02613 0.99874
3259.59774 0.99877
3258.16934 0.99883
3256.74095 0.99890
3255.31255 0.99897
3253.88416 0.99904
3252.45576 0.99911
3251.02737 0.99915
3249.59897 0.99919
3248.17058 0.99922
3246.74218 0.99924
3245.31379 0.99925
3243.88539 0.99926
3242.45700 0.99927
3241.02860 0.99929
3239.60020 0.99932
3238.17181 0.99936
3236.74341 0.99943
3235.31502 0.99951
3233.88662 0.99959
3232.45823 0.99968
3231.02983 0.99976
3229.60144 0.99983
3228.17304 0.99989
3226.74465 0.99994
3225.31625 0.99998
3223.88786 1.00000
3222.45946 1.00000
3221.03107 1.00000
3219.60267 0.99999
3218.17428 0.99997
3216.74588 0.99996
3215.31749 0.99995
3213.88909 0.99993
3212.46070 0.99992
3211.03230 0.99991
3209.60391 0.99991
3208.17551 0.99990
3206.74712 0.99988
3205.31872 0.99988
3203.89033 0.99987
3202.46193 0.99986
3201.03354 0.99986
3199.60514 0.99986
3198.17675 0.99986
3196.74835 0.99986
3195.31996 0.99987
3193.89156 0.99987
3192.46316 0.99987
3191.03477 0.99988
3189.60637 0.99989
3188.17798 0.99991
3186.74958 0.99993
3185.32119 0.99995
3183.89279 0.99997
3182.46440 0.99998
3181.03600 1.00000
3179.60761 1.00000
3178.17921 1.00000
3176.75082 1.00000
3175.32242 1.00000
3173.89403 0.99999
3172.46563 0.99999
3171.03724 0.99998
3169.60884 0.99998
3168.18045 0.99998
3166.75205 0.99998
3165.32366 0.99998
3163.89526 0.99996
3162.46687 0.99993
3161.03847 0.99989
3159.61008 0.99983
3158.18168 0.99976
3156.75329 0.99968
3155.32489 0.99960
3153.89650 0.99952
3152.46810 0.99945
3151.03971 0.99938
3149.61131 0.99933
3148.18292 0.99930
3146.75452 0.99928
3145.32612 0.99928
3143.89773 0.99928
3142.46933 0.99929
3141.04094 0.99929
3139.61254 0.99930
3138.18415 0.99930
3136.75575 0.99930
3135.32736 0.99928
3133.89896 0.99926
3132.47057 0.99922
3131.04217 0.99918
3129.61378 0.99912
3128.18538 0.99905
3126.75699 0.99898
3125.32859 0.99891
3123.90020 0.99884
3122.47180 0.99877
3121.04341 0.99871
3119.61501 0.99866
3118.18662 0.99862
3116.75822 0.99860
3115.32983 0.99858
3113.90143 0.99856
3112.47304 0.99855
3111.04464 0.99854
3109.61625 0.99852
3108.18785 0.99851
3106.75946 0.99849
3105.33106 0.99846
3103.90267 0.99843
3102.47427 0.99840
3101.04588 0.99837
3099.61748 0.99834
3098.18908 0.99831
3096.76069 0.99829
3095.33229 0.99826
3093.90390 0.99823
3092.47550 0.99820
3091.04711 0.99816
3089.61871 0.99812
3088.19032 0.99808
3086.76192 0.99804
3085.33353 0.99800
3083.90513 0.99795
3082.47674 0.99792
3081.04834 0.99788
3079.61995 0.99785
3078.19155 0.99783
3076.76316 0.99781
3075.33476 0.99779
3073.90637 0.99778
3072.47797 0.99777
3071.04958 0.99777
3069.62118 0.99777
3068.19279 0.99777
3066.76439 0.99777
3065.33600 0.99777
3063.90760 0.99777
3062.47921 0.99776
3061.05081 0.99775
3059.62242 0.99773
3058.19402 0.99771
3056.76563 0.99768
3055.33723 0.99764
3053.90884 0.99761
3052.48044 0.99757
3051.05204 0.99753
3049.62365 0.99750
3048.19525 0.99748
3046.76686 0.99746
3045.33846 0.99744
3043.91007 0.99742
3042.48167 0.99740
3041.05328 0.99737
3039.62488 0.99735
3038.19649 0.99732
3036.76809 0.99730
3035.33970 0.99728
3033.91130 0.99725
3032.48291 0.99723
3031.05451 0.99722
3029.62612 0.99722
3028.19772 0.99722
3026.76933 0.99724
3025.34093 0.99726
3023.91254 0.99729
3022.48414 0.99732
3021.05575 0.99734
3019.62735 0.99735
3018.19896 0.99736
3016.77056 0.99736
3015.34217 0.99735
3013.91377 0.99734
3012.48538 0.99732
3011.05698 0.99729
3009.62859 0.99726
3008.20019 0.99723
3006.77180 0.99720
3005.34340 0.99717
3003.91500 0.99714
3002.48661 0.99712
3001.05821 0.99709
2999.62982 0.99707
2998.20142 0.99705
2996.77303 0.99702
2995.34463 0.99700
2993.91624 0.99699
2992.48784 0.99697
2991.05945 0.99696
2989.63105 0.99696
2988.20266 0.99695
2986.77426 0.99695
2985.34587 0.99694
2983.91747 0.99694
2982.48908 0.99694
2981.06068 0.99694
2979.63229 0.99694
2978.20389 0.99695
2976.77550 0.99695
2975.34710 0.99695
2973.91871 0.99695
2972.49031 0.99696
2971.06192 0.99696
2969.63352 0.99697
2968.20513 0.99698
2966.77673 0.99699
2965.34834 0.99701
2963.91994 0.99703
2962.49155 0.99706
2961.06315 0.99708
2959.63476 0.99711
2958.20636 0.99713
2956.77796 0.99716
2955.34957 0.99719
2953.92117 0.99721
2952.49278 0.99723
2951.06438 0.99724
2949.63599 0.99725
2948.20759 0.99727
2946.77920 0.99728
2945.35080 0.99729
2943.92241 0.99730
2942.49401 0.99732
2941.06562 0.99735
2939.63722 0.99738
2938.20883 0.99741
2936.78043 0.99745
2935.35204 0.99749
2933.92364 0.99753
2932.49525 0.99757
2931.06685 0.99761
2929.63846 0.99765
2928.21006 0.99768
2926.78167 0.99771
2925.35327 0.99773
2923.92488 0.99775
2922.49648 0.99776
2921.06809 0.99776
2919.63969 0.99776
2918.21130 0.99776
2916.78290 0.99776
2915.35451 0.99775
2913.92611 0.99774
2912.49772 0.99774
2911.06932 0.99774
2909.64092 0.99775
2908.21253 0.99776
2906.78413 0.99778
2905.35574 0.99780
2903.92734 0.99783
2902.49895 0.99786
2901.07055 0.99788
2899.64216 0.99791
2898.21376 0.99793
2896.78537 0.99795
2895.35697 0.99796
2893.92858 0.99797
2892.50018 0.99798
2891.07179 0.99798
2889.64339 0.99798
2888.21500 0.99798
2886.78660 0.99798
2885.35821 0.99799
2883.92981 0.99799
2882.50142 0.99800
2881.07302 0.99802
2879.64463 0.99803
2878.21623 0.99805
2876.78784 0.99807
2875.35944 0.99809
2873.93105 0.99811
2872.50265 0.99814
2871.07426 0.99817
2869.64586 0.99821
2868.21747 0.99826
2866.78907 0.99831
2865.36068 0.99836
2863.93228 0.99842
2862.50388 0.99848
2861.07549 0.99853
2859.64709 0.99859
2858.21870 0.99864
2856.79030 0.99867
2855.36191 0.99870
2853.93351 0.99872
2852.50512 0.99872
2851.07672 0.99873
2849.64833 0.99872
2848.21993 0.99872
2846.79154 0.99872
2845.36314 0.99872
2843.93475 0.99873
2842.50635 0.99873
2841.07796 0.99874
2839.64956 0.99876
2838.22117 0.99877
2836.79277 0.99878
2835.36438 0.99879
2833.93598 0.99880
2832.50759 0.99881
2831.07919 0.99881
2829.65080 0.99882
2828.22240 0.99883
2826.79401 0.99884
2825.36561 0.99885
2823.93722 0.99886
2822.50882 0.99888
2821.08043 0.99890
2819.65203 0.99891
2818.22364 0.99893
2816.79524 0.99895
2815.36684 0.99897
2813.93845 0.99899
2812.51005 0.99901
2811.08166 0.99903
2809.65326 0.99904
2808.22487 0.99906
2806.79647 0.99907
2805.36808 0.99908
2803.93968 0.99909
2802.51129 0.99909
2801.08289 0.99910
2799.65450 0.99911
2798.22610 0.99911
2796.79771 0.99912
2795.36931 0.99913
2793.94092 0.99915
2792.51252 0.99916
2791.08413 0.99918
2789.65573 0.99920
2788.22734 0.99922
2786.79894 0.99924
2785.37055 0.99926
2783.94215 0.99928
2782.51376 0.99930
2781.08536 0.99931
2779.65697 0.99933
2778.22857 0.99934
2776.80018 0.99935
2775.37178 0.99936
2773.94339 0.99937
2772.51499 0.99938
2771.08660 0.99938
2769.65820 0.99938
2768.22980 0.99937
2766.80141 0.99937
2765.37301 0.99936
2763.94462 0.99935
2762.51622 0.99934
2761.08783 0.99933
2759.65943 0.99933
2758.23104 0.99933
2756.80264 0.99933
2755.37425 0.99934
2753.94585 0.99935
2752.51746 0.99936
2751.08906 0.99937
2749.66067 0.99938
2748.23227 0.99940
2746.80388 0.99941
2745.37548 0.99942
2743.94709 0.99943
2742.51869 0.99944
2741.09030 0.99945
2739.66190 0.99946
2738.23351 0.99948
2736.80511 0.99950
2735.37672 0.99951
2733.94832 0.99953
2732.51993 0.99955
2731.09153 0.99956
2729.66314 0.99958
2728.23474 0.99959
2726.80635 0.99960
2725.37795 0.99961
2723.94956 0.99962
2722.52116 0.99962
2721.09276 0.99962
2719.66437 0.99962
2718.23597 0.99962
2716.80758 0.99962
2715.37918 0.99961
2713.95079 0.99961
2712.52239 0.99961
2711.09400 0.99961
2709.66560 0.99961
2708.23721 0.99961
2706.80881 0.99962
2705.38042 0.99963
2703.95202 0.99964
2702.52363 0.99966
2701.09523 0.99967
2699.66684 0.99969
2698.23844 0.99971
2696.81005 0.99973
2695.38165 0.99975
2693.95326 0.99976
2692.52486 0.99977
2691.09647 0.99976
2689.66807 0.99976
2688.23968 0.99975
2686.81128 0.99973
2685.38289 0.99972
2683.95449 0.99970
2682.52610 0.99968
2681.09770 0.99967
2679.66931 0.99967
2678.24091 0.99968
2676.81252 0.99969
2675.38412 0.99971
2673.95572 0.99974
2672.52733 0.99977
2671.09893 0.99980
2669.67054 0.99983
2668.24214 0.99985
2666.81375 0.99988
2665.38535 0.99990
2663.95696 0.99991
2662.52856 0.99991
2661.10017 0.99991
2659.67177 0.99990
2658.24338 0.99988
2656.81498 0.99987
2655.38659 0.99986
2653.95819 0.99985
2652.52980 0.99985
2651.10140 0.99985
2649.67301 0.99985
2648.24461 0.99986
2646.81622 0.99987
2645.38782 0.99988
2643.95943 0.99989
2642.53103 0.99989
2641.10264 0.99989
2639.67424 0.99989
2638.24585 0.99988
2636.81745 0.99988
2635.38906 0.99987
2633.96066 0.99986
2632.53227 0.99985
2631.10387 0.99984
2629.67548 0.99983
2628.24708 0.99983
2626.81868 0.99984
2625.39029 0.99984
2623.96189 0.99985
2622.53350 0.99986
2621.10510 0.99987
2619.67671 0.99989
2618.24831 0.99990
2616.81992 0.99992
2615.39152 0.99993
2613.96313 0.99994
2612.53473 0.99995
2611.10634 0.99996
2609.67794 0.99997
2608.24955 0.99997
2606.82115 0.99997
2605.39276 0.99997
2603.96436 0.99997
2602.53597 0.99996
2601.10757 0.99995
2599.67918 0.99993
2598.25078 0.99992
2596.82239 0.99992
2595.39399 0.99991
2593.96560 0.99991
2592.53720 0.99991
2591.10881 0.99991
2589.68041 0.99991
2588.25202 0.99992
2586.82362 0.99992
2585.39523 0.99993
2583.96683 0.99994
2582.53843 0.99994
2581.11004 0.99995
2579.68164 0.99996
2578.25325 0.99997
2576.82485 0.99997
2575.39646 0.99998
2573.96806 0.99999
2572.53967 1.00000
2571.11127 1.00000
2569.68288 1.00000
2568.25448 1.00000
2566.82609 0.99999
2565.39769 0.99998
2563.96930 0.99997
2562.54090 0.99997
2561.11251 0.99997
2559.68411 0.99996
2558.25572 0.99996
2556.82732 0.99994
2555.39893 0.99993
2553.97053 0.99991
2552.54214 0.99989
2551.11374 0.99987
2549.68535 0.99986
2548.25695 0.99985
2546.82856 0.99984
2545.40016 0.99984
2543.97177 0.99985
2542.54337 0.99986
2541.11498 0.99987
2539.68658 0.99988
2538.25819 0.99989
2536.82979 0.99989
2535.40139 0.99989
2533.97300 0.99989
2532.54460 0.99989
2531.11621 0.99989
2529.68781 0.99989
2528.25942 0.99990
2526.83102 0.99991
2525.40263 0.99993
2523.97423 0.99995
2522.54584 0.99997
2521.11744 0.99999
2519.68905 1.00000
2518.26065 1.00000
2516.83226 1.00000
2515.40386 0.99999
2513.97547 0.99998
2512.54707 0.99997
2511.11868 0.99996
2509.69028 0.99994
2508.26189 0.99992
2506.83349 0.99989
2505.40510 0.99987
2503.97670 0.99986
2502.54831 0.99986
2501.11991 0.99986
2499.69152 0.99988
2498.26312 0.99989
2496.83473 0.99990
2495.40633 0.99991
2493.97794 0.99992
2492.54954 0.99992
2491.12115 0.99992
2489.69275 0.99992
2488.26435 0.99990
2486.83596 0.99989
2485.40756 0.99986
2483.97917 0.99985
2482.55077 0.99983
2481.12238 0.99983
2479.69398 0.99984
2478.26559 0.99986
2476.83719 0.99988
2475.40880 0.99990
2473.98040 0.99992
2472.55201 0.99994
2471.12361 0.99995
2469.69522 0.99995
2468.26682 0.99995
2466.83843 0.99995
2465.41003 0.99994
2463.98164 0.99992
2462.55324 0.99990
2461.12485 0.99989
2459.69645 0.99988
2458.26806 0.99988
2456.83966 0.99987
2455.41127 0.99986
2453.98287 0.99986
2452.55448 0.99986
2451.12608 0.99986
2449.69769 0.99985
2448.26929 0.99985
2446.84090 0.99985
2445.41250 0.99985
2443.98411 0.99985
2442.55571 0.99986
2441.12731 0.99987
2439.69892 0.99988
2438.27052 0.99990
2436.84213 0.99991
2435.41373 0.99992
2433.98534 0.99993
2432.55694 0.99994
2431.12855 0.99995
2429.70015 0.99995
2428.27176 0.99995
2426.84336 0.99995
2425.41497 0.99995
2423.98657 0.99994
2422.55818 0.99994
2421.12978 0.99994
2419.70139 0.99995
2418.27299 0.99996
2416.84460 0.99997
2415.41620 0.99999
2413.98781 1.00000
2412.55941 1.00000
2411.13102 1.00000
2409.70262 0.99999
2408.27423 0.99998
2406.84583 0.99997
2405.41744 0.99994
2403.98904 0.99992
2402.56065 0.99989
2401.13225 0.99987
2399.70386 0.99986
2398.27546 0.99984
2396.84707 0.99984
2395.41867 0.99983
2393.99027 0.99983
2392.56188 0.99983
2391.13348 0.99984
2389.70509 0.99984
2388.27669 0.99984
2386.84830 0.99984
2385.41990 0.99984
2383.99151 0.99984
2382.56311 0.99984
2381.13472 0.99984
2379.70632 0.99984
2378.27793 0.99984
2376.84953 0.99984
2375.42114 0.99984
2373.99274 0.99984
2372.56435 0.99984
2371.13595 0.99984
2369.70756 0.99983
2368.27916 0.99983
2366.85077 0.99983
2365.42237 0.99983
2363.99398 0.99983
2362.56558 0.99983
2361.13719 0.99983
2359.70879 0.99983
2358.28040 0.99983
2356.85200 0.99983
2355.42361 0.99983
2353.99521 0.99983
2352.56682 0.99983
2351.13842 0.99982
2349.71003 0.99982
2348.28163 0.99982
2346.85323 0.99982
2345.42484 0.99982
2343.99644 0.99982
2342.56805 0.99982
2341.13965 0.99982
2339.71126 0.99982
2338.28286 0.99982
2336.85447 0.99981
2335.42607 0.99981
2333.99768 0.99981
2332.56928 0.99981
2331.14089 0.99981
2329.71249 0.99981
2328.28410 0.99981
2326.85570 0.99981
2325.42731 0.99981
2323.99891 0.99980
2322.57052 0.99980
2321.14212 0.99980
2319.71373 0.99980
2318.28533 0.99980
2316.85694 0.99980
2315.42854 0.99980
2314.00015 0.99980
2312.57175 0.99979
2311.14336 0.99979
2309.71496 0.99979
2308.28657 0.99979
2306.85817 0.99979
2305.42978 0.99979
2304.00138 0.99978
2302.57299 0.99978
2301.14459 0.99978
2299.71619 0.99978
2298.28780 0.99978
2296.85940 0.99978
2295.43101 0.99978
2294.00261 0.99977
2292.57422 0.99977
2291.14582 0.99977
2289.71743 0.99977
2288.28903 0.99977
2286.86064 0.99976
2285.43224 0.99976
2284.00385 0.99976
2282.57545 0.99976
2281.14706 0.99976
2279.71866 0.99976
2278.29027 0.99975
2276.86187 0.99975
2275.43348 0.99975
2274.00508 0.99975
2272.57669 0.99975
2271.14829 0.99974
2269.71990 0.99974
2268.29150 0.99974
2266.86311 0.99974
2265.43471 0.99974
2264.00632 0.99973
2262.57792 0.99973
2261.14953 0.99973
2259.72113 0.99973
2258.29274 0.99973
2256.86434 0.99972
2255.43595 0.99972
2254.00755 0.99972
2252.57915 0.99971
2251.15076 0.99971
2249.72236 0.99970
2248.29397 0.99970
2246.86557 0.99971
2245.43718 0.99971
2244.00878 0.99972
2242.58039 0.99972
2241.15199 0.99973
2239.72360 0.99973
2238.29520 0.99973
2236.86681 0.99974
2235.43841 0.99974
2234.01002 0.99974
2232.58162 0.99973
2231.15323 0.99970
2229.72483 0.99966
2228.29644 0.99963
2226.86804 0.99959
2225.43965 0.99956
2224.01125 0.99952
2222.58286 0.99947
2221.15446 0.99942
2219.72607 0.99936
2218.29767 0.99930
2216.86928 0.99925
2215.44088 0.99920
2214.01249 0.99917
2212.58409 0.99914
2211.15570 0.99911
2209.72730 0.99908
2208.29891 0.99905
2206.87051 0.99904
2205.44211 0.99904
2204.01372 0.99907
2202.58532 0.99910
2201.15693 0.99913
2199.72853 0.99917
2198.30014 0.99919
2196.87174 0.99920
2195.44335 0.99919
2194.01495 0.99917
2192.58656 0.99914
2191.15816 0.99910
2189.72977 0.99907
2188.30137 0.99905
2186.87298 0.99904
2185.44458 0.99906
2184.01619 0.99912
2182.58779 0.99921
2181.15940 0.99935
2179.73100 0.99952
2178.30261 0.99969
2176.87421 0.99984
2175.44582 0.99994
2174.01742 0.99998
2172.58903 0.99994
2171.16063 0.99982
2169.73224 0.99964
2168.30384 0.99942
2166.87545 0.99917
2165.44705 0.99890
2164.01866 0.99863
2162.59026 0.99838
2161.16187 0.99819
2159.73347 0.99809
2158.30507 0.99807
2156.87668 0.99813
2155.44828 0.99826
2154.01989 0.99843
2152.59149 0.99860
2151.16310 0.99877
2149.73470 0.99891
2148.30631 0.99901
2146.87791 0.99907
2145.44952 0.99908
2144.02112 0.99903
2142.59273 0.99894
2141.16433 0.99881
2139.73594 0.99868
2138.30754 0.99855
2136.87915 0.99845
2135.45075 0.99839
2134.02236 0.99837
2132.59396 0.99840
2131.16557 0.99845
2129.73717 0.99854
2128.30878 0.99864
2126.88038 0.99875
2125.45199 0.99885
2124.02359 0.99896
2122.59520 0.99905
2121.16680 0.99912
2119.73841 0.99918
2118.31001 0.99922
2116.88162 0.99925
2115.45322 0.99927
2114.02483 0.99929
2112.59643 0.99931
2111.16803 0.99934
2109.73964 0.99936
2108.31124 0.99938
2106.88285 0.99939
2105.45445 0.99940
2104.02606 0.99939
2102.59766 0.99937
2101.16927 0.99934
2099.74087 0.99929
2098.31248 0.99923
2096.88408 0.99917
2095.45569 0.99909
2094.02729 0.99902
2092.59890 0.99896
2091.17050 0.99892
2089.74211 0.99891
2088.31371 0.99891
2086.88532 0.99894
2085.45692 0.99897
2084.02853 0.99902
2082.60013 0.99907
2081.17174 0.99913
2079.74334 0.99917
2078.31495 0.99921
2076.88655 0.99924
2075.45816 0.99925
2074.02976 0.99926
2072.60137 0.99926
2071.17297 0.99925
2069.74458 0.99924
2068.31618 0.99923
2066.88779 0.99921
2065.45939 0.99921
2064.03099 0.99921
2062.60260 0.99921
2061.17420 0.99922
2059.74581 0.99924
2058.31741 0.99926
2056.88902 0.99928
2055.46062 0.99931
2054.03223 0.99936
2052.60383 0.99942
2051.17544 0.99949
2049.74704 0.99955
2048.31865 0.99959
2046.89025 0.99962
2045.46186 0.99963
2044.03346 0.99963
2042.60507 0.99962
2041.17667 0.99962
2039.74828 0.99961
2038.31988 0.99960
2036.89149 0.99960
2035.46309 0.99960
2034.03470 0.99962
2032.60630 0.99965
2031.17791 0.99970
2029.74951 0.99978
2028.32112 0.99985
2026.89272 0.99992
2025.46433 0.99996
2024.03593 0.99999
2022.60754 1.00000
2021.17914 0.99999
2019.75075 0.99996
2018.32235 0.99992
2016.89395 0.99988
2015.46556 0.99984
2014.03716 0.99979
2012.60877 0.99974
2011.18037 0.99967
2009.75198 0.99962
2008.32358 0.99958
2006.89519 0.99956
2005.46679 0.99957
2004.03840 0.99960
2002.61000 0.99964
2001.18161 0.99967
1999.75321 0.99968
1998.32482 0.99967
1996.89642 0.99964
1995.46803 0.99959
1994.03963 0.99954
1992.61124 0.99947
1991.18284 0.99936
1989.75445 0.99921
1988.32605 0.99904
1986.89766 0.99887
1985.46926 0.99872
1984.04087 0.99863
1982.61247 0.99861
1981.18408 0.99865
1979.75568 0.99874
1978.32729 0.99885
1976.89889 0.99898
1975.47050 0.99912
1974.04210 0.99926
1972.61371 0.99940
1971.18531 0.99954
1969.75691 0.99964
1968.32852 0.99969
1966.90012 0.99968
1965.47173 0.99963
1964.04333 0.99956
1962.61494 0.99950
1961.18654 0.99944
1959.75815 0.99941
1958.32975 0.99939
1956.90136 0.99937
1955.47296 0.99936
1954.04457 0.99936
1952.61617 0.99936
1951.18778 0.99939
1949.75938 0.99943
1948.33099 0.99949
1946.90259 0.99954
1945.47420 0.99958
1944.04580 0.99961
1942.61741 0.99963
1941.18901 0.99965
1939.76062 0.99966
1938.33222 0.99966
1936.90383 0.99965
1935.47543 0.99962
1934.04704 0.99958
1932.61864 0.99953
1931.19025 0.99947
1929.76185 0.99942
1928.33346 0.99937
1926.90506 0.99932
1925.47667 0.99928
1924.04827 0.99924
1922.61987 0.99920
1921.19148 0.99917
1919.76308 0.99914
1918.33469 0.99914
1916.90629 0.99915
1915.47790 0.99917
1914.04950 0.99920
1912.62111 0.99925
1911.19271 0.99931
1909.76432 0.99937
1908.33592 0.99944
1906.90753 0.99950
1905.47913 0.99957
1904.05074 0.99962
1902.62234 0.99966
1901.19395 0.99968
1899.76555 0.99968
1898.33716 0.99967
1896.90876 0.99965
1895.48037 0.99963
1894.05197 0.99960
1892.62358 0.99958
1891.19518 0.99956
1889.76679 0.99954
1888.33839 0.99952
1886.91000 0.99951
1885.48160 0.99951
1884.05321 0.99953
1882.62481 0.99955
1881.19642 0.99958
1879.76802 0.99961
1878.33963 0.99964
1876.91123 0.99967
1875.48283 0.99971
1874.05444 0.99975
1872.62604 0.99978
1871.19765 0.99981
1869.76925 0.99983
1868.34086 0.99983
1866.91246 0.99983
1865.48407 0.99983
1864.05567 0.99983
1862.62728 0.99984
1861.19888 0.99985
1859.77049 0.99987
1858.34209 0.99988
1856.91370 0.99990
1855.48530 0.99992
1854.05691 0.99993
1852.62851 0.99994
1851.20012 0.99994
1849.77172 0.99993
1848.34333 0.99990
1846.91493 0.99987
1845.48654 0.99984
1844.05814 0.99980
1842.62975 0.99977
1841.20135 0.99975
1839.77296 0.99973
1838.34456 0.99973
1836.91617 0.99973
1835.48777 0.99973
1834.05938 0.99973
1832.63098 0.99973
1831.20258 0.99974
1829.77419 0.99974
1828.34579 0.99975
1826.91740 0.99975
1825.48900 0.99976
1824.06061 0.99976
1822.63221 0.99976
1821.20382 0.99975
1819.77542 0.99976
1818.34703 0.99976
1816.91863 0.99977
1815.49024 0.99978
1814.06184 0.99979
1812.63345 0.99980
1811.20505 0.99981
1809.77666 0.99982
1808.34826 0.99983
1806.91987 0.99985
1805.49147 0.99986
1804.06308 0.99986
1802.63468 0.99986
1801.20629 0.99985
1799.77789 0.99984
1798.34950 0.99982
1796.92110 0.99981
1795.49271 0.99980
1794.06431 0.99980
1792.63592 0.99980
1791.20752 0.99981
1789.77913 0.99981
1788.35073 0.99983
1786.92234 0.99984
1785.49394 0.99986
1784.06554 0.99988
1782.63715 0.99990
1781.20875 0.99992
1779.78036 0.99993
1778.35196 0.99994
1776.92357 0.99995
1775.49517 0.99995
1774.06678 0.99995
1772.63838 0.99995
1771.20999 0.99994
1769.78159 0.99993
1768.35320 0.99992
1766.92480 0.99992
1765.49641 0.99991
1764.06801 0.99990
1762.63962 0.99989
1761.21122 0.99988
1759.78283 0.99987
1758.35443 0.99986
1756.92604 0.99986
1755.49764 0.99985
1754.06925 0.99986
1752.64085 0.99986
1751.21246 0.99986
1749.78406 0.99987
1748.35567 0.99988
1746.92727 0.99988
1745.49888 0.99989
1744.07048 0.99990
1742.64209 0.99991
1741.21369 0.99991
1739.78530 0.99991
1738.35690 0.99991
1736.92850 0.99991
1735.50011 0.99992
1734.07171 0.99992
1732.64332 0.99993
1731.21492 0.99995
1729.78653 0.99996
1728.35813 0.99998
1726.92974 0.99998
1725.50134 0.99999
1724.07295 1.00000
1722.64455 1.00000
1721.21616 1.00000
1719.78776 1.00000
1718.35937 1.00000
1716.93097 1.00000
1715.50258 0.99998
1714.07418 0.99996
1712.64579 0.99993
1711.21739 0.99989
1709.78900 0.99984
1708.36060 0.99979
1706.93221 0.99974
1705.50381 0.99968
1704.07542 0.99963
1702.64702 0.99959
1701.21863 0.99955
1699.79023 0.99952
1698.36184 0.99949
1696.93344 0.99946
1695.50505 0.99941
1694.07665 0.99935
1692.64826 0.99927
1691.21986 0.99916
1689.79146 0.99903
1688.36307 0.99888
1686.93467 0.99873
1685.50628 0.99856
1684.07788 0.99839
1682.64949 0.99821
1681.22109 0.99804
1679.79270 0.99787
1678.36430 0.99771
1676.93591 0.99754
1675.50751 0.99737
1674.07912 0.99718
1672.65072 0.99697
1671.22233 0.99673
1669.79393 0.99648
1668.36554 0.99621
1666.93714 0.99594
1665.50875 0.99566
1664.08035 0.99538
1662.65196 0.99510
1661.22356 0.99483
1659.79517 0.99458
1658.36677 0.99435
1656.93838 0.99415
1655.50998 0.99397
1654.08159 0.99380
1652.65319 0.99366
1651.22480 0.99354
1649.79640 0.99344
1648.36801 0.99336
1646.93961 0.99332
1645.51122 0.99330
1644.08282 0.99332
1642.65442 0.99337
1641.22603 0.99343
1639.79763 0.99352
1638.36924 0.99363
1636.94084 0.99375
1635.51245 0.99387
1634.08405 0.99400
1632.65566 0.99412
1631.22726 0.99423
1629.79887 0.99433
1628.37047 0.99443
1626.94208 0.99453
1625.51368 0.99463
1624.08529 0.99472
1622.65689 0.99483
1621.22850 0.99493
1619.80010 0.99504
1618.37171 0.99515
1616.94331 0.99526
1615.51492 0.99536
1614.08652 0.99546
1612.65813 0.99554
1611.22973 0.99559
1609.80134 0.99562
1608.37294 0.99562
1606.94455 0.99560
1605.51615 0.99556
1604.08776 0.99548
1602.65936 0.99539
1601.23097 0.99526
1599.80257 0.99511
1598.37418 0.99493
1596.94578 0.99473
1595.51738 0.99450
1594.08899 0.99425
1592.66059 0.99399
1591.23220 0.99370
1589.80380 0.99340
1588.37541 0.99309
1586.94701 0.99277
1585.51862 0.99244
1584.09022 0.99213
1582.66183 0.99182
1581.23343 0.99152
1579.80504 0.99123
1578.37664 0.99096
1576.94825 0.99071
1575.51985 0.99049
1574.09146 0.99028
1572.66306 0.99011
1571.23467 0.98996
1569.80627 0.98984
1568.37788 0.98975
1566.94948 0.98968
1565.52109 0.98964
1564.09269 0.98962
1562.66430 0.98963
1561.23590 0.98965
1559.80751 0.98969
1558.37911 0.98976
1556.95072 0.98984
1555.52232 0.98995
1554.09393 0.99009
1552.66553 0.99026
1551.23714 0.99046
1549.80874 0.99068
1548.38034 0.99094
1546.95195 0.99123
1545.52355 0.99154
1544.09516 0.99187
1542.66676 0.99222
1541.23837 0.99257
1539.80997 0.99293
1538.38158 0.99327
1536.95318 0.99360
1535.52479 0.99391
1534.09639 0.99421
1532.66800 0.99448
1531.23960 0.99474
1529.81121 0.99498
1528.38281 0.99520
1526.95442 0.99541
1525.52602 0.99561
1524.09763 0.99580
1522.66923 0.99599
1521.24084 0.99618
1519.81244 0.99637
1518.38405 0.99656
1516.95565 0.99675
1515.52726 0.99693
1514.09886 0.99710
1512.67047 0.99727
1511.24207 0.99744
1509.81368 0.99761
1508.38528 0.99777
1506.95689 0.99793
1505.52849 0.99807
1504.10010 0.99821
1502.67170 0.99833
1501.24330 0.99844
1499.81491 0.99854
1498.38651 0.99864
1496.95812 0.99873
1495.52972 0.99882
1494.10133 0.99890
1492.67293 0.99898
1491.24454 0.99905
1489.81614 0.99912
1488.38775 0.99919
1486.95935 0.99926
1485.53096 0.99932
1484.10256 0.99937
1482.67417 0.99941
1481.24577 0.99944
1479.81738 0.99946
1478.38898 0.99947
1476.96059 0.99948
1475.53219 0.99949
1474.10380 0.99949
1472.67540 0.99949
1471.24701 0.99948
1469.81861 0.99947
1468.39022 0.99945
1466.96182 0.99942
1465.53343 0.99939
1464.10503 0.99934
1462.67664 0.99929
1461.24824 0.99922
1459.81985 0.99916
1458.39145 0.99909
1456.96306 0.99903
1455.53466 0.99897
1454.10626 0.99892
1452.67787 0.99887
1451.24947 0.99883
1449.82108 0.99879
1448.39268 0.99876
1446.96429 0.99874
1445.53589 0.99872
1444.10750 0.99871
1442.67910 0.99870
1441.25071 0.99869
1439.82231 0.99868
1438.39392 0.99867
1436.96552 0.99867
1435.53713 0.99867
1434.10873 0.99866
1432.68034 0.99864
1431.25194 0.99860
1429.82355 0.99854
1428.39515 0.99846
1426.96676 0.99835
1425.53836 0.99823
1424.10997 0.99809
1422.68157 0.99793
1421.25318 0.99776
1419.82478 0.99758
1418.39639 0.99739
1416.96799 0.99720
1415.53960 0.99701
1414.11120 0.99683
1412.68281 0.99666
1411.25441 0.99648
1409.82602 0.99630
1408.39762 0.99612
1406.96922 0.99594
1405.54083 0.99575
1404.11243 0.99558
1402.68404 0.99540
1401.25564 0.99524
1399.82725 0.99508
1398.39885 0.99493
1396.97046 0.99481
1395.54206 0.99471
1394.11367 0.99463
1392.68527 0.99459
1391.25688 0.99459
1389.82848 0.99461
1388.40009 0.99467
1386.97169 0.99476
1385.54330 0.99487
1384.11490 0.99502
1382.68651 0.99518
1381.25811 0.99538
1379.82972 0.99558
1378.40132 0.99580
1376.97293 0.99603
1375.54453 0.99626
1374.11614 0.99649
1372.68774 0.99672
1371.25935 0.99694
1369.83095 0.99715
1368.40256 0.99735
1366.97416 0.99753
1365.54577 0.99770
1364.11737 0.99786
1362.68898 0.99800
1361.26058 0.99814
1359.83218 0.99828
1358.40379 0.99840
1356.97539 0.99853
1355.54700 0.99864
1354.11860 0.99875
1352.69021 0.99885
1351.26181 0.99895
1349.83342 0.99903
1348.40502 0.99910
1346.97663 0.99917
1345.54823 0.99922
1344.11984 0.99926
1342.69144 0.99930
1341.26305 0.99933
1339.83465 0.99935
1338.40626 0.99938
1336.97786 0.99941
1335.54947 0.99944
1334.12107 0.99946
1332.69268 0.99949
1331.26428 0.99952
1329.83589 0.99954
1328.40749 0.99957
1326.97910 0.99960
1325.55070 0.99962
1324.12231 0.99964
1322.69391 0.99965
1321.26552 0.99965
1319.83712 0.99965
1318.40873 0.99965
1316.98033 0.99964
1315.55194 0.99963
1314.12354 0.99962
1312.69514 0.99960
1311.26675 0.99957
1309.83835 0.99954
1308.40996 0.99952
1306.98156 0.99949
1305.55317 0.99946
1304.12477 0.99943
1302.69638 0.99940
1301.26798 0.99937
1299.83959 0.99934
1298.41119 0.99931
1296.98280 0.99927
1295.55440 0.99923
1294.12601 0.99918
1292.69761 0.99913
1291.26922 0.99908
1289.84082 0.99902
1288.41243 0.99896
1286.98403 0.99890
1285.55564 0.99885
1284.12724 0.99881
1282.69885 0.99878
1281.27045 0.99876
1279.84206 0.99876
1278.41366 0.99877
1276.98527 0.99880
1275.55687 0.99883
1274.12848 0.99887
1272.70008 0.99891
1271.27169 0.99895
1269.84329 0.99899
1268.41490 0.99902
1266.98650 0.99905
1265.55810 0.99906
1264.12971 0.99908
1262.70131 0.99908
1261.27292 0.99909
1259.84452 0.99909
1258.41613 0.99909
1256.98773 0.99909
1255.55934 0.99910
1254.13094 0.99911
1252.70255 0.99913
1251.27415 0.99916
1249.84576 0.99920
1248.41736 0.99924
1246.98897 0.99928
1245.56057 0.99932
1244.13218 0.99936
1242.70378 0.99940
1241.27539 0.99942
1239.84699 0.99944
1238.41860 0.99946
1236.99020 0.99947
1235.56181 0.99948
1234.13341 0.99950
1232.70502 0.99952
1231.27662 0.99954
1229.84823 0.99956
1228.41983 0.99960
1226.99144 0.99963
1225.56304 0.99967
1224.13465 0.99971
1222.70625 0.99974
1221.27786 0.99977
1219.84946 0.99979
1218.42106 0.99980
1216.99267 0.99981
1215.56427 0.99982
1214.13588 0.99982
1212.70748 0.99982
1211.27909 0.99982
1209.85069 0.99981
1208.42230 0.99981
1206.99390 0.99980
1205.56551 0.99980
1204.13711 0.99980
1202.70872 0.99981
1201.28032 0.99982
1199.85193 0.99983
1198.42353 0.99985
1196.99514 0.99987
1195.56674 0.99989
1194.13835 0.99992
1192.70995 0.99995
1191.28156 0.99997
1189.85316 0.99998
1188.42477 0.99999
1186.99637 1.00000
1185.56798 1.00000
1184.13958 1.00000
1182.71119 1.00000
1181.28279 1.00000
1179.85440 1.00000
1178.42600 1.00000
1176.99761 1.00000
1175.56921 0.99999
1174.14082 0.99999
1172.71242 0.99998
1171.28402 0.99997
1169.85563 0.99995
1168.42723 0.99993
1166.99884 0.99991
1165.57044 0.99988
1164.14205 0.99986
1162.71365 0.99983
1161.28526 0.99981
1159.85686 0.99979
1158.42847 0.99978
1157.00007 0.99977
1155.57168 0.99977
1154.14328 0.99977
1152.71489 0.99978
1151.28649 0.99980
1149.85810 0.99983
1148.42970 0.99986
1147.00131 0.99989
1145.57291 0.99991
1144.14452 0.99993
1142.71612 0.99994
1141.28773 0.99994
1139.85933 0.99993
1138.43094 0.99990
1137.00254 0.99986
1135.57415 0.99981
1134.14575 0.99976
1132.71736 0.99970
1131.28896 0.99964
1129.86057 0.99960
1128.43217 0.99956
1127.00378 0.99954
1125.57538 0.99953
1124.14698 0.99954
1122.71859 0.99955
1121.29019 0.99957
1119.86180 0.99959
1118.43340 0.99960
1117.00501 0.99959
1115.57661 0.99958
1114.14822 0.99955
1112.71982 0.99951
1111.29143 0.99945
1109.86303 0.99939
1108.43464 0.99932
1107.00624 0.99927
1105.57785 0.99922
1104.14945 0.99919
1102.72106 0.99917
1101.29266 0.99916
1099.86427 0.99916
1098.43587 0.99916
1097.00748 0.99916
1095.57908 0.99916
1094.15069 0.99915
1092.72229 0.99914
1091.29390 0.99911
1089.86550 0.99908
1088.43711 0.99904
1087.00871 0.99899
1085.58032 0.99895
1084.15192 0.99891
1082.72353 0.99888
1081.29513 0.99885
1079.86673 0.99883
1078.43834 0.99881
1077.00994 0.99881
1075.58155 0.99882
1074.15315 0.99883
1072.72476 0.99885
1071.29636 0.99887
1069.86797 0.99889
1068.43957 0.99890
1067.01118 0.99892
1065.58278 0.99892
1064.15439 0.99892
1062.72599 0.99891
1061.29760 0.99890
1059.86920 0.99888
1058.44081 0.99886
1057.01241 0.99883
1055.58402 0.99881
1054.15562 0.99879
1052.72723 0.99877
1051.29883 0.99876
1049.87044 0.99875
1048.44204 0.99875
1047.01365 0.99876
1045.58525 0.99876
1044.15686 0.99877
1042.72846 0.99878
1041.30007 0.99879
1039.87167 0.99881
1038.44328 0.99883
1037.01488 0.99886
1035.58649 0.99889
1034.15809 0.99892
1032.72969 0.99896
1031.30130 0.99899
1029.87290 0.99903
1028.44451 0.99907
1027.01611 0.99910
1025.58772 0.99914
1024.15932 0.99917
1022.73093 0.99920
1021.30253 0.99922
1019.87414 0.99925
1018.44574 0.99927
1017.01735 0.99928
1015.58895 0.99930
1014.16056 0.99931
1012.73216 0.99933
1011.30377 0.99933
1009.87537 0.99934
1008.44698 0.99935
1007.01858 0.99936
1005.59019 0.99938
1004.16179 0.99940
1002.73340 0.99942
1001.30500 0.99944
999.87661 0.99946
998.44821 0.99948
997.01982 0.99950
995.59142 0.99952
994.16303 0.99953
992.73463 0.99954
991.30624 0.99954
989.87784 0.99953
988.44945 0.99951
987.02105 0.99950
985.59265 0.99950
984.16426 0.99949
982.73586 0.99949
981.30747 0.99950
979.87907 0.99951
978.45068 0.99953
977.02228 0.99955
975.59389 0.99957
974.16549 0.99959
972.73710 0.99962
971.30870 0.99963
969.88031 0.99964
968.45191 0.99964
967.02352 0.99964
965.59512 0.99964
964.16673 0.99963
962.73833 0.99961
961.30994 0.99959
959.88154 0.99956
958.45315 0.99952
957.02475 0.99949
955.59636 0.99944
954.16796 0.99940
952.73957 0.99936
951.31117 0.99931
949.88278 0.99927
948.45438 0.99923
947.02599 0.99919
945.59759 0.99917
944.16920 0.99917
942.74080 0.99917
941.31241 0.99918
939.88401 0.99920
938.45561 0.99923
937.02722 0.99926
935.59882 0.99930
934.17043 0.99935
932.74203 0.99939
931.31364 0.99943
929.88524 0.99946
928.45685 0.99948
927.02845 0.99949
925.60006 0.99949
924.17166 0.99948
922.74327 0.99946
921.31487 0.99944
919.88648 0.99940
918.45808 0.99936
917.02969 0.99932
915.60129 0.99927
914.17290 0.99924
912.74450 0.99921
911.31611 0.99919
909.88771 0.99919
908.45932 0.99919
907.03092 0.99920
905.60253 0.99922
904.17413 0.99925
902.74574 0.99928
901.31734 0.99931
899.88895 0.99934
898.46055 0.99936
897.03216 0.99938
895.60376 0.99939
894.17537 0.99939
892.74697 0.99938
891.31857 0.99937
889.89018 0.99935
888.46178 0.99934
887.03339 0.99933
885.60499 0.99933
884.17660 0.99933
882.74820 0.99935
881.31981 0.99938
879.89141 0.99942
878.46302 0.99946
877.03462 0.99951
875.60623 0.99955
874.17783 0.99960
872.74944 0.99964
871.32104 0.99968
869.89265 0.99971
868.46425 0.99973
867.03586 0.99974
865.60746 0.99975
864.17907 0.99975
862.75067 0.99974
861.32228 0.99972
859.89388 0.99969
858.46549 0.99966
857.03709 0.99961
855.60870 0.99956
854.18030 0.99950
852.75191 0.99944
851.32351 0.99937
849.89512 0.99930
848.46672 0.99925
847.03833 0.99920
845.60993 0.99917
844.18153 0.99915
842.75314 0.99914
841.32474 0.99914
839.89635 0.99915
838.46795 0.99917
837.03956 0.99918
835.61116 0.99920
834.18277 0.99920
832.75437 0.99920
831.32598 0.99919
829.89758 0.99918
828.46919 0.99917
827.04079 0.99917
825.61240 0.99919
824.18400 0.99923
822.75561 0.99928
821.32721 0.99935
819.89882 0.99941
818.47042 0.99947
817.04203 0.99952
815.61363 0.99955
814.18524 0.99955
812.75684 0.99953
811.32845 0.99948
809.90005 0.99940
808.47166 0.99932
807.04326 0.99922
805.61487 0.99914
804.18647 0.99907
802.75808 0.99903
801.32968 0.99901
799.90129 0.99901
798.47289 0.99903
797.04449 0.99908
795.61610 0.99914
794.18770 0.99921
792.75931 0.99930
791.33091 0.99938
789.90252 0.99946
788.47412 0.99953
787.04573 0.99958
785.61733 0.99962
784.18894 0.99965
782.76054 0.99966
781.33215 0.99966
779.90375 0.99964
778.47536 0.99961
777.04696 0.99959
775.61857 0.99956
774.19017 0.99955
772.76178 0.99954
771.33338 0.99953
769.90499 0.99953
768.47659 0.99953
767.04820 0.99952
765.61980 0.99951
764.19141 0.99949
762.76301 0.99946
761.33462 0.99943
759.90622 0.99940
758.47783 0.99936
757.04943 0.99934
755.62104 0.99932
754.19264 0.99932
752.76425 0.99934
751.33585 0.99937
749.90745 0.99942
748.47906 0.99947
747.05066 0.99955
745.62227 0.99964
744.19387 0.99973
742.76548 0.99982
741.33708 0.99991
739.90869 0.99997
738.48029 1.00000
737.05190 1.00000
735.62350 0.99995
734.19511 0.99987
732.76671 0.99975
731.33832 0.99961
729.90992 0.99946
728.48153 0.99931
727.05313 0.99919
725.62474 0.99910
724.19634 0.99906
722.76795 0.99907
721.33955 0.99913
719.91116 0.99922
718.48276 0.99934
717.05437 0.99947
715.62597 0.99959
714.19758 0.99968
712.76918 0.99974
711.34079 0.99977
709.91239 0.99977
708.48400 0.99974
707.05560 0.99969
705.62721 0.99963
704.19881 0.99956
702.77041 0.99948
701.34202 0.99940
699.91362 0.99931
698.48523 0.99922
697.05683 0.99911
695.62844 0.99900
694.20004 0.99887
692.77165 0.99874
691.34325 0.99862
689.91486 0.99854
688.48646 0.99851
687.05807 0.99851
685.62967 0.99853
684.20128 0.99855
682.77288 0.99856
681.34449 0.99855
679.91609 0.99850
678.48770 0.99840
677.05930 0.99825
675.63091 0.99804
674.20251 0.99780
672.77412 0.99755
671.34572 0.99730
669.91733 0.99710
668.48893 0.99698
667.06054 0.99695
665.63214 0.99699
664.20375 0.99706
662.77535 0.99714
661.34696 0.99721
659.91856 0.99727
658.49017 0.99730
657.06177 0.99731
655.63337 0.99729
654.20498 0.99725
652.77658 0.99722
651.34819 0.99722
649.91979 0.99725
648.49140 0.99733
647.06300 0.99746
645.63461 0.99764
644.20621 0.99785
642.77782 0.99807
641.34942 0.99827
639.92103 0.99843
638.49263 0.99857
637.06424 0.99869
635.63584 0.99878
634.20745 0.99885
632.77905 0.99891
631.35066 0.99895
629.92226 0.99898
628.49387 0.99899
627.06547 0.99898
625.63708 0.99895
624.20868 0.99890
622.78029 0.99884
621.35189 0.99876
619.92350 0.99867
618.49510 0.99858
617.06671 0.99848
615.63831 0.99840
614.20992 0.99834
612.78152 0.99831
611.35313 0.99830
609.92473 0.99831
608.49633 0.99833
607.06794 0.99836
605.63954 0.99838
604.21115 0.99840
602.78275 0.99840
601.35436 0.99837
599.92596 0.99833
598.49757 0.99826
597.06917 0.99817
595.64078 0.99806
594.21238 0.99794
592.78399 0.99783
591.35559 0.99772
589.92720 0.99762
588.49880 0.99754
587.07041 0.99748
585.64201 0.99745
584.21362 0.99746
582.78522 0.99751
581.35683 0.99759
579.92843 0.99768
578.50004 0.99778
577.07164 0.99788
575.64325 0.99797
574.21485 0.99806
572.78646 0.99813
571.35806 0.99817
569.92967 0.99816
568.50127 0.99810
567.07288 0.99799
565.64448 0.99783
564.21609 0.99765
562.78769 0.99745
561.35929 0.99724
559.93090 0.99704
558.50250 0.99685
557.07411 0.99667
555.64571 0.99652
554.21732 0.99641
552.78892 0.99635
551.36053 0.99634
549.93213 0.99635
548.50374 0.99639
547.07534 0.99644
545.64695 0.99652
544.21855 0.99662
542.79016 0.99670
541.36176 0.99676
539.93337 0.99677
538.50497 0.99672
537.07658 0.99663
535.64818 0.99649
534.21979 0.99630
532.79139 0.99607
531.36300 0.99579
529.93460 0.99547
528.50621 0.99514
527.07781 0.99483
525.64942 0.99459
524.22102 0.99445
522.79263 0.99440
521.36423 0.99442
519.93584 0.99448
518.50744 0.99456
517.07905 0.99465
515.65065 0.99472
514.22225 0.99478
512.79386 0.99481
511.36546 0.99479
509.93707 0.99473
508.50867 0.99461
507.08028 0.99443
505.65188 0.99421
504.22349 0.99398
502.79509 0.99376
501.36670 0.99353
499.93830 0.99332
498.50991 0.99311
497.08151 0.99292
495.65312 0.99274
494.22472 0.99258
492.79633 0.99241
491.36793 0.99224
489.93954 0.99209
488.51114 0.99198
487.08275 0.99190
485.65435 0.99185
484.22596 0.99179
482.79756 0.99169
481.36917 0.99156
479.94077 0.99140
478.51238 0.99123
477.08398 0.99108
475.65559 0.99097
474.22719 0.99093
472.79880 0.99093
471.37040 0.99096
469.94201 0.99101
468.51361 0.99107
467.08521 0.99119
465.65682 0.99137
464.22842 0.99161
462.80003 0.99184
461.37163 0.99200
459.94324 0.99205
458.51484 0.99197
457.08645 0.99175
455.65805 0.99142
454.22966 0.99104
452.80126 0.99068
451.37287 0.99042
449.94447 0.99030
448.51608 0.99032
447.08768 0.99049
445.65929 0.99083
444.23089 0.99133
442.80250 0.99193
441.37410 0.99255
439.94571 0.99311
438.51731 0.99355
437.08892 0.99380
435.66052 0.99383
434.23213 0.99364
432.80373 0.99331
431.37534 0.99293
429.94694 0.99262
428.51855 0.99248
427.09015 0.99255
425.66176 0.99283
424.23336 0.99333
422.80497 0.99400
421.37657 0.99484
419.94817 0.99577
418.51978 0.99672
417.09138 0.99764
415.66299 0.99847
414.23459 0.99915
412.80620 0.99966
411.37780 1.00000
409.94941 1.00000
408.52101 1.00000
407.09262 1.00000
405.66422 1.00000
404.23583 1.00000
402.80743 1.00000
401.37904 1.00000
399.95064 1.00000
