3998.07803 0.99996
3996.64964 0.99996
3995.22124 0.99997
3993.79285 0.99997
3992.36445 0.99997
3990.93605 0.99998
3989.50766 0.99998
3988.07926 0.99999
3986.65087 0.99999
3985.22247 0.99997
3983.79408 0.99995
3982.36568 0.99993
3980.93729 0.99991
3979.50889 0.99990
3978.08050 0.99989
3976.65210 0.99989
3975.22371 0.99990
3973.79531 0.99991
3972.36692 0.99992
3970.93852 0.99993
3969.51013 0.99993
3968.08173 0.99994
3966.65334 0.99994
3965.22494 0.99994
3963.79655 0.99993
3962.36815 0.99992
3960.93976 0.99991
3959.51136 0.99991
3958.08297 0.99991
3956.65457 0.99992
3955.22618 0.99994
3953.79778 0.99996
3952.36939 0.99997
3950.94099 0.99999
3949.51260 1.00000
3948.08420 1.00000
3946.65581 1.00000
3945.22741 0.99999
3943.79901 0.99998
3942.37062 0.99995
3940.94222 0.99993
3939.51383 0.99990
3938.08543 0.99988
3936.65704 0.99987
3935.22864 0.99987
3933.80025 0.99987
3932.37185 0.99989
3930.94346 0.99991
3929.51506 0.99993
3928.08667 0.99995
3926.65827 0.99996
3925.22988 0.99997
3923.80148 0.99996
3922.37309 0.99993
3920.94469 0.99989
3919.51630 0.99984
3918.08790 0.99979
3916.65951 0.99974
3915.23111 0.99971
3913.80272 0.99968
3912.37432 0.99967
3910.94593 0.99967
3909.51753 0.99969
3908.08914 0.99972
3906.66074 0.99977
3905.23235 0.99981
3903.80395 0.99985
3902.37556 0.99987
3900.94716 0.99987
3899.51877 0.99986
3898.09037 0.99984
3896.66197 0.99981
3895.23358 0.99978
3893.80518 0.99976
3892.37679 0.99974
3890.94839 0.99971
3889.52000 0.99969
3888.09160 0.99968
3886.66321 0.99968
3885.23481 0.99968
3883.80642 0.99970
3882.37802 0.99972
3880.94963 0.99974
3879.52123 0.99977
3878.09284 0.99980
3876.66444 0.99984
3875.23605 0.99989
3873.80765 0.99993
3872.37926 0.99997
3870.95086 0.99999
3869.52247 1.00000
3868.09407 0.99999
3866.66568 0.99998
3865.23728 0.99997
3863.80889 0.99996
3862.38049 0.99994
3860.95210 0.99992
3859.52370 0.99991
3858.09531 0.99990
3856.66691 0.99990
3855.23852 0.99990
3853.81012 0.99990
3852.38173 0.99990
3850.95333 0.99989
3849.52493 0.99987
3848.09654 0.99986
3846.66814 0.99985
3845.23975 0.99985
3843.81135 0.99985
3842.38296 0.99986
3840.95456 0.99986
3839.52617 0.99985
3838.09777 0.99983
3836.66938 0.99981
3835.24098 0.99979
3833.81259 0.99977
3832.38419 0.99976
3830.95580 0.99975
3829.52740 0.99975
3828.09901 0.99977
3826.67061 0.99979
3825.24222 0.99981
3823.81382 0.99983
3822.38543 0.99982
3820.95703 0.99979
3819.52864 0.99974
3818.10024 0.99966
3816.67185 0.99957
3815.24345 0.99947
3813.81506 0.99940
3812.38666 0.99935
3810.95827 0.99934
3809.52987 0.99937
3808.10148 0.99942
3806.67308 0.99949
3805.24469 0.99956
3803.81629 0.99962
3802.38789 0.99965
3800.95950 0.99965
3799.53110 0.99960
3798.10271 0.99952
3796.67431 0.99940
3795.24592 0.99928
3793.81752 0.99916
3792.38913 0.99906
3790.96073 0.99897
3789.53234 0.99892
3788.10394 0.99888
3786.67555 0.99886
3785.24715 0.99885
3783.81876 0.99883
3782.39036 0.99882
3780.96197 0.99880
3779.53357 0.99877
3778.10518 0.99874
3776.67678 0.99871
3775.24839 0.99868
3773.81999 0.99867
3772.39160 0.99868
3770.96320 0.99870
3769.53481 0.99872
3768.10641 0.99876
3766.67802 0.99880
3765.24962 0.99885
3763.82123 0.99892
3762.39283 0.99900
3760.96444 0.99909
3759.53604 0.99921
3758.10765 0.99933
3756.67925 0.99947
3755.25085 0.99960
3753.82246 0.99973
3752.39406 0.99984
3750.96567 0.99993
3749.53727 0.99999
3748.10888 1.00000
3746.68048 0.99997
3745.25209 0.99990
3743.82369 0.99979
3742.39530 0.99964
3740.96690 0.99948
3739.53851 0.99932
3738.11011 0.99915
3736.68172 0.99899
3735.25332 0.99884
3733.82493 0.99870
3732.39653 0.99856
3730.96814 0.99843
3729.53974 0.99833
3728.11135 0.99825
3726.68295 0.99821
3725.25456 0.99819
3723.82616 0.99820
3722.39777 0.99822
3720.96937 0.99825
3719.54098 0.99829
3718.11258 0.99835
3716.68419 0.99841
3715.25579 0.99847
3713.82740 0.99852
3712.39900 0.99854
3710.97061 0.99852
3709.54221 0.99846
3708.11381 0.99836
3706.68542 0.99825
3705.25702 0.99815
3703.82863 0.99806
3702.40023 0.99799
3700.97184 0.99794
3699.54344 0.99791
3698.11505 0.99791
3696.68665 0.99794
3695.25826 0.99800
3693.82986 0.99808
3692.40147 0.99818
3690.97307 0.99828
3689.54468 0.99837
3688.11628 0.99843
3686.68789 0.99848
3685.25949 0.99852
3683.83110 0.99858
3682.40270 0.99864
3680.97431 0.99872
3679.54591 0.99881
3678.11752 0.99889
3676.68912 0.99896
3675.26073 0.99900
3673.83233 0.99901
3672.40394 0.99899
3670.97554 0.99893
3669.54715 0.99883
3668.11875 0.99869
3666.69036 0.99853
3665.26196 0.99838
3663.83357 0.99825
3662.40517 0.99817
3660.97677 0.99813
3659.54838 0.99815
3658.11998 0.99822
3656.69159 0.99833
3655.26319 0.99846
3653.83480 0.99859
3652.40640 0.99871
3650.97801 0.99878
3649.54961 0.99881
3648.12122 0.99876
3646.69282 0.99865
3645.26443 0.99851
3643.83603 0.99836
3642.40764 0.99821
3640.97924 0.99807
3639.55085 0.99795
3638.12245 0.99786
3636.69406 0.99779
3635.26566 0.99776
3633.83727 0.99776
3632.40887 0.99777
3630.98048 0.99779
3629.55208 0.99782
3628.12369 0.99782
3626.69529 0.99782
3625.26690 0.99780
3623.83850 0.99780
3622.41011 0.99781
3620.98171 0.99783
3619.55332 0.99786
3618.12492 0.99788
3616.69653 0.99788
3615.26813 0.99786
3613.83973 0.99783
3612.41134 0.99777
3610.98294 0.99769
3609.55455 0.99759
3608.12615 0.99749
3606.69776 0.99737
3605.26936 0.99726
3603.84097 0.99717
3602.41257 0.99711
3600.98418 0.99708
3599.55578 0.99708
3598.12739 0.99709
3596.69899 0.99711
3595.27060 0.99712
3593.84220 0.99711
3592.41381 0.99710
3590.98541 0.99707
3589.55702 0.99702
3588.12862 0.99695
3586.70023 0.99686
3585.27183 0.99676
3583.84344 0.99666
3582.41504 0.99658
3580.98665 0.99652
3579.55825 0.99650
3578.12986 0.99650
3576.70146 0.99653
3575.27307 0.99657
3573.84467 0.99662
3572.41628 0.99667
3570.98788 0.99672
3569.55949 0.99676
3568.13109 0.99678
3566.70269 0.99677
3565.27430 0.99673
3563.84590 0.99666
3562.41751 0.99658
3560.98911 0.99651
3559.56072 0.99645
3558.13232 0.99640
3556.70393 0.99638
3555.27553 0.99637
3553.84714 0.99638
3552.41874 0.99639
3550.99035 0.99640
3549.56195 0.99640
3548.13356 0.99639
3546.70516 0.99636
3545.27677 0.99631
3543.84837 0.99624
3542.41998 0.99615
3540.99158 0.99606
3539.56319 0.99597
3538.13479 0.99590
3536.70640 0.99584
3535.27800 0.99581
3533.84961 0.99581
3532.42121 0.99582
3530.99282 0.99585
3529.56442 0.99590
3528.13603 0.99594
3526.70763 0.99598
3525.27924 0.99600
3523.85084 0.99602
3522.42245 0.99601
3520.99405 0.99598
3519.56565 0.99593
3518.13726 0.99587
3516.70886 0.99580
3515.28047 0.99574
3513.85207 0.99569
3512.42368 0.99565
3510.99528 0.99563
3509.56689 0.99563
3508.13849 0.99564
3506.71010 0.99566
3505.28170 0.99568
3503.85331 0.99570
3502.42491 0.99571
3500.99652 0.99570
3499.56812 0.99568
3498.13973 0.99564
3496.71133 0.99559
3495.28294 0.99553
3493.85454 0.99548
3492.42615 0.99544
3490.99775 0.99541
3489.56936 0.99539
3488.14096 0.99540
3486.71257 0.99541
3485.28417 0.99543
3483.85578 0.99545
3482.42738 0.99546
3480.99899 0.99546
3479.57059 0.99545
3478.14220 0.99544
3476.71380 0.99541
3475.28541 0.99539
3473.85701 0.99535
3472.42861 0.99532
3471.00022 0.99529
3469.57182 0.99526
3468.14343 0.99524
3466.71503 0.99523
3465.28664 0.99521
3463.85824 0.99520
3462.42985 0.99519
3461.00145 0.99518
3459.57306 0.99519
3458.14466 0.99520
3456.71627 0.99523
3455.28787 0.99526
3453.85948 0.99530
3452.43108 0.99534
3451.00269 0.99537
3449.57429 0.99541
3448.14590 0.99543
3446.71750 0.99545
3445.28911 0.99546
3443.86071 0.99544
3442.43232 0.99541
3441.00392 0.99537
3439.57553 0.99534
3438.14713 0.99531
3436.71874 0.99529
3435.29034 0.99530
3433.86195 0.99532
3432.43355 0.99536
3431.00516 0.99541
3429.57676 0.99548
3428.14837 0.99556
3426.71997 0.99566
3425.29157 0.99575
3423.86318 0.99583
3422.43478 0.99590
3421.00639 0.99595
3419.57799 0.99598
3418.14960 0.99600
3416.72120 0.99601
3415.29281 0.99601
3413.86441 0.99600
3412.43602 0.99600
3411.00762 0.99599
3409.57923 0.99600
3408.15083 0.99601
3406.72244 0.99605
3405.29404 0.99610
3403.86565 0.99617
3402.43725 0.99625
3401.00886 0.99633
3399.58046 0.99642
3398.15207 0.99651
3396.72367 0.99660
3395.29528 0.99668
3393.86688 0.99676
3392.43849 0.99682
3391.01009 0.99687
3389.58170 0.99691
3388.15330 0.99694
3386.72491 0.99697
3385.29651 0.99700
3383.86812 0.99704
3382.43972 0.99708
3381.01133 0.99712
3379.58293 0.99718
3378.15453 0.99725
3376.72614 0.99733
3375.29774 0.99742
3373.86935 0.99751
3372.44095 0.99759
3371.01256 0.99766
3369.58416 0.99772
3368.15577 0.99776
3366.72737 0.99778
3365.29898 0.99778
3363.87058 0.99777
3362.44219 0.99775
3361.01379 0.99772
3359.58540 0.99769
3358.15700 0.99766
3356.72861 0.99765
3355.30021 0.99765
3353.87182 0.99767
3352.44342 0.99771
3351.01503 0.99775
3349.58663 0.99781
3348.15824 0.99788
3346.72984 0.99795
3345.30145 0.99802
3343.87305 0.99809
3342.44466 0.99816
3341.01626 0.99822
3339.58787 0.99829
3338.15947 0.99834
3336.73108 0.99839
3335.30268 0.99842
3333.87428 0.99846
3332.44589 0.99849
3331.01749 0.99852
3329.58910 0.99854
3328.16070 0.99856
3326.73231 0.99857
3325.30391 0.99856
3323.87552 0.99854
3322.44712 0.99851
3321.01873 0.99848
3319.59033 0.99844
3318.16194 0.99839
3316.73354 0.99835
3315.30515 0.99831
3313.87675 0.99827
3312.44836 0.99826
3311.01996 0.99826
3309.59157 0.99829
3308.16317 0.99833
3306.73478 0.99838
3305.30638 0.99842
3303.87799 0.99847
3302.44959 0.99851
3301.02120 0.99854
3299.59280 0.99857
3298.16441 0.99858
3296.73601 0.99859
3295.30762 0.99858
3293.87922 0.99857
3292.45083 0.99856
3291.02243 0.99855
3289.59404 0.99855
3288.16564 0.99857
3286.73724 0.99859
3285.30885 0.99863
3283.88045 0.99867
3282.45206 0.99872
3281.02366 0.99879
3279.59527 0.99886
3278.16687 0.99894
3276.73848 0.99903
3275.31008 0.99911
3273.88169 0.99917
3272.45329 0.99923
3271.02490 0.99928
3269.59650 0.99932
3268.16811 0.99935
3266.73971 0.99938
3265.31132 0.99940
3263.88292 0.99940
3262.45453 0.99941
3261.02613 0.99941
3259.59774 0.99943
3258.16934 0.99945
3256.74095 0.99948
3255.31255 0.99952
3253.88416 0.99955
3252.45576 0.99959
3251.02737 0.99962
3249.59897 0.99966
3248.17058 0.99971
3246.74218 0.99976
3245.31379 0.99981
3243.88539 0.99986
3242.45700 0.99989
3241.02860 0.99992
3239.60020 0.99994
3238.17181 0.99996
3236.74341 0.99997
3235.31502 0.99998
3233.88662 0.99999
3232.45823 0.99999
3231.02983 0.99999
3229.60144 0.99999
3228.17304 0.99999
3226.74465 1.00000
3225.31625 1.00000
3223.88786 1.00000
3222.45946 1.00000
3221.03107 0.99998
3219.60267 0.99996
3218.17428 0.99993
3216.74588 0.99990
3215.31749 0.99987
3213.88909 0.99983
3212.46070 0.99980
3211.03230 0.99978
3209.60391 0.99978
3208.17551 0.99978
3206.74712 0.99980
3205.31872 0.99982
3203.89033 0.99985
3202.46193 0.99989
3201.03354 0.99992
3199.60514 0.99994
3198.17675 0.99997
3196.74835 0.99999
3195.31996 1.00000
3193.89156 1.00000
3192.46316 0.99999
3191.03477 0.99997
3189.60637 0.99994
3188.17798 0.99990
3186.74958 0.99985
3185.32119 0.99980
3183.89279 0.99975
3182.46440 0.99969
3181.03600 0.99964
3179.60761 0.99959
3178.17921 0.99955
3176.75082 0.99951
3175.32242 0.99947
3173.89403 0.99944
3172.46563 0.99941
3171.03724 0.99937
3169.60884 0.99932
3168.18045 0.99927
3166.75205 0.99922
3165.32366 0.99916
3163.89526 0.99911
3162.46687 0.99906
3161.03847 0.99903
3159.61008 0.99900
3158.18168 0.99897
3156.75329 0.99895
3155.32489 0.99892
3153.89650 0.99890
3152.46810 0.99887
3151.03971 0.99883
3149.61131 0.99878
3148.18292 0.99872
3146.75452 0.99866
3145.32612 0.99859
3143.89773 0.99851
3142.46933 0.99845
3141.04094 0.99838
3139.61254 0.99832
3138.18415 0.99827
3136.75575 0.99821
3135.32736 0.99815
3133.89896 0.99808
3132.47057 0.99801
3131.04217 0.99793
3129.61378 0.99785
3128.18538 0.99776
3126.75699 0.99767
3125.32859 0.99758
3123.90020 0.99750
3122.47180 0.99741
3121.04341 0.99734
3119.61501 0.99727
3118.18662 0.99721
3116.75822 0.99715
3115.32983 0.99709
3113.90143 0.99702
3112.47304 0.99694
3111.04464 0.99686
3109.61625 0.99677
3108.18785 0.99669
3106.75946 0.99661
3105.33106 0.99653
3103.90267 0.99646
3102.47427 0.99640
3101.04588 0.99634
3099.61748 0.99628
3098.18908 0.99622
3096.76069 0.99617
3095.33229 0.99611
3093.90390 0.99604
3092.47550 0.99596
3091.04711 0.99588
3089.61871 0.99580
3088.19032 0.99571
3086.76192 0.99564
3085.33353 0.99558
3083.90513 0.99553
3082.47674 0.99550
3081.04834 0.99547
3079.61995 0.99545
3078.19155 0.99543
3076.76316 0.99540
3075.33476 0.99537
3073.90637 0.99533
3072.47797 0.99528
3071.04958 0.99523
3069.62118 0.99517
3068.19279 0.99510
3066.76439 0.99504
3065.33600 0.99499
3063.90760 0.99495
3062.47921 0.99491
3061.05081 0.99489
3059.62242 0.99487
3058.19402 0.99486
3056.76563 0.99484
3055.33723 0.99482
3053.90884 0.99479
3052.48044 0.99476
3051.05204 0.99473
3049.62365 0.99469
3048.19525 0.99466
3046.76686 0.99462
3045.33846 0.99457
3043.91007 0.99454
3042.48167 0.99450
3041.05328 0.99447
3039.62488 0.99444
3038.19649 0.99442
3036.76809 0.99440
3035.33970 0.99438
3033.91130 0.99437
3032.48291 0.99436
3031.05451 0.99436
3029.62612 0.99436
3028.19772 0.99437
3026.76933 0.99438
3025.34093 0.99440
3023.91254 0.99442
3022.48414 0.99444
3021.05575 0.99446
3019.62735 0.99447
3018.19896 0.99448
3016.77056 0.99449
3015.34217 0.99448
3013.91377 0.99447
3012.48538 0.99446
3011.05698 0.99443
3009.62859 0.99440
3008.20019 0.99436
3006.77180 0.99432
3005.34340 0.99428
3003.91500 0.99425
3002.48661 0.99422
3001.05821 0.99420
2999.62982 0.99418
2998.20142 0.99417
2996.77303 0.99416
2995.34463 0.99415
2993.91624 0.99414
2992.48784 0.99413
2991.05945 0.99412
2989.63105 0.99410
2988.20266 0.99408
2986.77426 0.99406
2985.34587 0.99403
2983.91747 0.99399
2982.48908 0.99395
2981.06068 0.99391
2979.63229 0.99386
2978.20389 0.99381
2976.77550 0.99374
2975.34710 0.99367
2973.91871 0.99359
2972.49031 0.99351
2971.06192 0.99342
2969.63352 0.99333
2968.20513 0.99325
2966.77673 0.99317
2965.34834 0.99311
2963.91994 0.99307
2962.49155 0.99305
2961.06315 0.99306
2959.63476 0.99309
2958.20636 0.99313
2956.77796 0.99320
2955.34957 0.99327
2953.92117 0.99335
2952.49278 0.99343
2951.06438 0.99351
2949.63599 0.99358
2948.20759 0.99364
2946.77920 0.99369
2945.35080 0.99372
2943.92241 0.99374
2942.49401 0.99374
2941.06562 0.99373
2939.63722 0.99371
2938.20883 0.99368
2936.78043 0.99365
2935.35204 0.99362
2933.92364 0.99359
2932.49525 0.99356
2931.06685 0.99355
2929.63846 0.99354
2928.21006 0.99354
2926.78167 0.99356
2925.35327 0.99359
2923.92488 0.99363
2922.49648 0.99367
2921.06809 0.99372
2919.63969 0.99377
2918.21130 0.99382
2916.78290 0.99387
2915.35451 0.99392
2913.92611 0.99397
2912.49772 0.99402
2911.06932 0.99408
2909.64092 0.99413
2908.21253 0.99419
2906.78413 0.99426
2905.35574 0.99433
2903.92734 0.99440
2902.49895 0.99447
2901.07055 0.99455
2899.64216 0.99463
2898.21376 0.99470
2896.78537 0.99477
2895.35697 0.99483
2893.92858 0.99487
2892.50018 0.99491
2891.07179 0.99494
2889.64339 0.99497
2888.21500 0.99499
2886.78660 0.99501
2885.35821 0.99503
2883.92981 0.99505
2882.50142 0.99506
2881.07302 0.99508
2879.64463 0.99510
2878.21623 0.99512
2876.78784 0.99515
2875.35944 0.99517
2873.93105 0.99520
2872.50265 0.99523
2871.07426 0.99526
2869.64586 0.99529
2868.21747 0.99531
2866.78907 0.99534
2865.36068 0.99535
2863.93228 0.99537
2862.50388 0.99537
2861.07549 0.99537
2859.64709 0.99537
2858.21870 0.99537
2856.79030 0.99537
2855.36191 0.99539
2853.93351 0.99541
2852.50512 0.99544
2851.07672 0.99549
2849.64833 0.99555
2848.21993 0.99562
2846.79154 0.99569
2845.36314 0.99577
2843.93475 0.99585
2842.50635 0.99592
2841.07796 0.99598
2839.64956 0.99603
2838.22117 0.99607
2836.79277 0.99610
2835.36438 0.99611
2833.93598 0.99612
2832.50759 0.99612
2831.07919 0.99612
2829.65080 0.99612
2828.22240 0.99613
2826.79401 0.99614
2825.36561 0.99615
2823.93722 0.99617
2822.50882 0.99619
2821.08043 0.99622
2819.65203 0.99625
2818.22364 0.99628
2816.79524 0.99631
2815.36684 0.99634
2813.93845 0.99637
2812.51005 0.99640
2811.08166 0.99643
2809.65326 0.99646
2808.22487 0.99650
2806.79647 0.99653
2805.36808 0.99657
2803.93968 0.99660
2802.51129 0.99663
2801.08289 0.99665
2799.65450 0.99667
2798.22610 0.99669
2796.79771 0.99670
2795.36931 0.99672
2793.94092 0.99673
2792.51252 0.99674
2791.08413 0.99675
2789.65573 0.99677
2788.22734 0.99679
2786.79894 0.99681
2785.37055 0.99683
2783.94215 0.99685
2782.51376 0.99688
2781.08536 0.99690
2779.65697 0.99692
2778.22857 0.99694
2776.80018 0.99696
2775.37178 0.99698
2773.94339 0.99699
2772.51499 0.99701
2771.08660 0.99703
2769.65820 0.99705
2768.22980 0.99708
2766.80141 0.99710
2765.37301 0.99713
2763.94462 0.99716
2762.51622 0.99718
2761.08783 0.99721
2759.65943 0.99723
2758.23104 0.99726
2756.80264 0.99728
2755.37425 0.99730
2753.94585 0.99732
2752.51746 0.99734
2751.08906 0.99736
2749.66067 0.99737
2748.23227 0.99739
2746.80388 0.99740
2745.37548 0.99742
2743.94709 0.99743
2742.51869 0.99744
2741.09030 0.99745
2739.66190 0.99746
2738.23351 0.99747
2736.80511 0.99748
2735.37672 0.99750
2733.94832 0.99752
2732.51993 0.99753
2731.09153 0.99755
2729.66314 0.99757
2728.23474 0.99760
2726.80635 0.99762
2725.37795 0.99765
2723.94956 0.99768
2722.52116 0.99772
2721.09276 0.99775
2719.66437 0.99779
2718.23597 0.99782
2716.80758 0.99786
2715.37918 0.99789
2713.95079 0.99792
2712.52239 0.99794
2711.09400 0.99795
2709.66560 0.99796
2708.23721 0.99796
2706.80881 0.99795
2705.38042 0.99794
2703.95202 0.99794
2702.52363 0.99793
2701.09523 0.99793
2699.66684 0.99793
2698.23844 0.99794
2696.81005 0.99795
2695.38165 0.99797
2693.95326 0.99800
2692.52486 0.99802
2691.09647 0.99804
2689.66807 0.99806
2688.23968 0.99808
2686.81128 0.99809
2685.38289 0.99810
2683.95449 0.99811
2682.52610 0.99812
2681.09770 0.99813
2679.66931 0.99814
2678.24091 0.99815
2676.81252 0.99816
2675.38412 0.99817
2673.95572 0.99818
2672.52733 0.99820
2671.09893 0.99823
2669.67054 0.99825
2668.24214 0.99827
2666.81375 0.99830
2665.38535 0.99832
2663.95696 0.99835
2662.52856 0.99837
2661.10017 0.99840
2659.67177 0.99841
2658.24338 0.99843
2656.81498 0.99844
2655.38659 0.99844
2653.95819 0.99845
2652.52980 0.99845
2651.10140 0.99846
2649.67301 0.99847
2648.24461 0.99849
2646.81622 0.99852
2645.38782 0.99854
2643.95943 0.99858
2642.53103 0.99861
2641.10264 0.99865
2639.67424 0.99869
2638.24585 0.99872
2636.81745 0.99875
2635.38906 0.99877
2633.96066 0.99879
2632.53227 0.99880
2631.10387 0.99881
2629.67548 0.99881
2628.24708 0.99880
2626.81868 0.99879
2625.39029 0.99877
2623.96189 0.99875
2622.53350 0.99873
2621.10510 0.99871
2619.67671 0.99869
2618.24831 0.99869
2616.81992 0.99871
2615.39152 0.99873
2613.96313 0.99877
2612.53473 0.99882
2611.10634 0.99887
2609.67794 0.99893
2608.24955 0.99899
2606.82115 0.99904
2605.39276 0.99907
2603.96436 0.99910
2602.53597 0.99910
2601.10757 0.99909
2599.67918 0.99907
2598.25078 0.99903
2596.82239 0.99899
2595.39399 0.99895
2593.96560 0.99892
2592.53720 0.99889
2591.10881 0.99888
2589.68041 0.99887
2588.25202 0.99888
2586.82362 0.99890
2585.39523 0.99893
2583.96683 0.99896
2582.53843 0.99899
2581.11004 0.99902
2579.68164 0.99904
2578.25325 0.99905
2576.82485 0.99905
2575.39646 0.99905
2573.96806 0.99905
2572.53967 0.99904
2571.11127 0.99903
2569.68288 0.99903
2568.25448 0.99904
2566.82609 0.99906
2565.39769 0.99909
2563.96930 0.99912
2562.54090 0.99916
2561.11251 0.99920
2559.68411 0.99924
2558.25572 0.99928
2556.82732 0.99931
2555.39893 0.99933
2553.97053 0.99933
2552.54214 0.99932
2551.11374 0.99930
2549.68535 0.99927
2548.25695 0.99925
2546.82856 0.99922
2545.40016 0.99921
2543.97177 0.99920
2542.54337 0.99920
2541.11498 0.99921
2539.68658 0.99922
2538.25819 0.99925
2536.82979 0.99929
2535.40139 0.99933
2533.97300 0.99936
2532.54460 0.99939
2531.11621 0.99941
2529.68781 0.99943
2528.25942 0.99944
2526.83102 0.99945
2525.40263 0.99946
2523.97423 0.99948
2522.54584 0.99949
2521.11744 0.99951
2519.68905 0.99952
2518.26065 0.99953
2516.83226 0.99955
2515.40386 0.99957
2513.97547 0.99959
2512.54707 0.99960
2511.11868 0.99960
2509.69028 0.99960
2508.26189 0.99960
2506.83349 0.99960
2505.40510 0.99959
2503.97670 0.99959
2502.54831 0.99960
2501.11991 0.99961
2499.69152 0.99962
2498.26312 0.99964
2496.83473 0.99966
2495.40633 0.99968
2493.97794 0.99971
2492.54954 0.99973
2491.12115 0.99975
2489.69275 0.99976
2488.26435 0.99977
2486.83596 0.99978
2485.40756 0.99978
2483.97917 0.99978
2482.55077 0.99977
2481.12238 0.99976
2479.69398 0.99974
2478.26559 0.99973
2476.83719 0.99971
2475.40880 0.99970
2473.98040 0.99968
2472.55201 0.99967
2471.12361 0.99966
2469.69522 0.99965
2468.26682 0.99965
2466.83843 0.99966
2465.41003 0.99968
2463.98164 0.99970
2462.55324 0.99973
2461.12485 0.99977
2459.69645 0.99980
2458.26806 0.99984
2456.83966 0.99986
2455.41127 0.99989
2453.98287 0.99990
2452.55448 0.99990
2451.12608 0.99990
2449.69769 0.99988
2448.26929 0.99985
2446.84090 0.99981
2445.41250 0.99977
2443.98411 0.99973
2442.55571 0.99971
2441.12731 0.99969
2439.69892 0.99969
2438.27052 0.99969
2436.84213 0.99970
2435.41373 0.99971
2433.98534 0.99973
2432.55694 0.99974
2431.12855 0.99975
2429.70015 0.99975
2428.27176 0.99975
2426.84336 0.99974
2425.41497 0.99973
2423.98657 0.99972
2422.55818 0.99972
2421.12978 0.99974
2419.70139 0.99976
2418.27299 0.99980
2416.84460 0.99984
2415.41620 0.99988
2413.98781 0.99992
2412.55941 0.99995
2411.13102 0.99998
2409.70262 0.99999
2408.27423 0.99999
2406.84583 0.99998
2405.41744 0.99997
2403.98904 0.99995
2402.56065 0.99993
2401.13225 0.99991
2399.70386 0.99989
2398.27546 0.99988
2396.84707 0.99988
2395.41867 0.99988
2393.99027 0.99988
2392.56188 0.99988
2391.13348 0.99988
2389.70509 0.99988
2388.27669 0.99988
2386.84830 0.99989
2385.41990 0.99989
2383.99151 0.99989
2382.56311 0.99989
2381.13472 0.99989
2379.70632 0.99989
2378.27793 0.99989
2376.84953 0.99989
2375.42114 0.99989
2373.99274 0.99989
2372.56435 0.99989
2371.13595 0.99989
2369.70756 0.99989
2368.27916 0.99989
2366.85077 0.99989
2365.42237 0.99989
2363.99398 0.99989
2362.56558 0.99989
2361.13719 0.99989
2359.70879 0.99989
2358.28040 0.99989
2356.85200 0.99989
2355.42361 0.99989
2353.99521 0.99989
2352.56682 0.99989
2351.13842 0.99989
2349.71003 0.99989
2348.28163 0.99989
2346.85323 0.99989
2345.42484 0.99989
2343.99644 0.99989
2342.56805 0.99989
2341.13965 0.99989
2339.71126 0.99989
2338.28286 0.99989
2336.85447 0.99989
2335.42607 0.99989
2333.99768 0.99989
2332.56928 0.99989
2331.14089 0.99988
2329.71249 0.99988
2328.28410 0.99988
2326.85570 0.99988
2325.42731 0.99988
2323.99891 0.99988
2322.57052 0.99988
2321.14212 0.99988
2319.71373 0.99988
2318.28533 0.99988
2316.85694 0.99988
2315.42854 0.99988
2314.00015 0.99988
2312.57175 0.99988
2311.14336 0.99988
2309.71496 0.99988
2308.28657 0.99988
2306.85817 0.99988
2305.42978 0.99987
2304.00138 0.99987
2302.57299 0.99987
2301.14459 0.99987
2299.71619 0.99987
2298.28780 0.99987
2296.85940 0.99987
2295.43101 0.99987
2294.00261 0.99987
2292.57422 0.99987
2291.14582 0.99987
2289.71743 0.99986
2288.28903 0.99986
2286.86064 0.99986
2285.43224 0.99986
2284.00385 0.99986
2282.57545 0.99986
2281.14706 0.99986
2279.71866 0.99986
2278.29027 0.99986
2276.86187 0.99986
2275.43348 0.99985
2274.00508 0.99985
2272.57669 0.99985
2271.14829 0.99985
2269.71990 0.99985
2268.29150 0.99985
2266.86311 0.99985
2265.43471 0.99985
2264.00632 0.99984
2262.57792 0.99984
2261.14953 0.99984
2259.72113 0.99984
2258.29274 0.99984
2256.86434 0.99984
2255.43595 0.99984
2254.00755 0.99984
2252.57915 0.99984
2251.15076 0.99984
2249.72236 0.99984
2248.29397 0.99984
2246.86557 0.99984
2245.43718 0.99984
2244.00878 0.99983
2242.58039 0.99981
2241.15199 0.99979
2239.72360 0.99975
2238.29520 0.99971
2236.86681 0.99967
2235.43841 0.99963
2234.01002 0.99959
2232.58162 0.99957
2231.15323 0.99956
2229.72483 0.99955
2228.29644 0.99956
2226.86804 0.99957
2225.43965 0.99959
2224.01125 0.99961
2222.58286 0.99963
2221.15446 0.99964
2219.72607 0.99965
2218.29767 0.99965
2216.86928 0.99965
2215.44088 0.99966
2214.01249 0.99968
2212.58409 0.99972
2211.15570 0.99977
2209.72730 0.99983
2208.29891 0.99990
2206.87051 0.99995
2205.44211 0.99999
2204.01372 1.00000
2202.58532 0.99999
2201.15693 0.99995
2199.72853 0.99989
2198.30014 0.99983
2196.87174 0.99976
2195.44335 0.99971
2194.01495 0.99967
2192.58656 0.99966
2191.15816 0.99967
2189.72977 0.99971
2188.30137 0.99975
2186.87298 0.99980
2185.44458 0.99985
2184.01619 0.99988
2182.58779 0.99989
2181.15940 0.99989
2179.73100 0.99986
2178.30261 0.99982
2176.87421 0.99977
2175.44582 0.99972
2174.01742 0.99967
2172.58903 0.99963
2171.16063 0.99958
2169.73224 0.99954
2168.30384 0.99949
2166.87545 0.99944
2165.44705 0.99941
2164.01866 0.99938
2162.59026 0.99938
2161.16187 0.99941
2159.73347 0.99946
2158.30507 0.99953
2156.87668 0.99962
2155.44828 0.99971
2154.01989 0.99980
2152.59149 0.99988
2151.16310 0.99995
2149.73470 0.99999
2148.30631 1.00000
2146.87791 0.99999
2145.44952 0.99995
2144.02112 0.99990
2142.59273 0.99982
2141.16433 0.99974
2139.73594 0.99966
2138.30754 0.99958
2136.87915 0.99950
2135.45075 0.99943
2134.02236 0.99937
2132.59396 0.99932
2131.16557 0.99929
2129.73717 0.99928
2128.30878 0.99929
2126.88038 0.99932
2125.45199 0.99936
2124.02359 0.99941
2122.59520 0.99945
2121.16680 0.99949
2119.73841 0.99951
2118.31001 0.99951
2116.88162 0.99949
2115.45322 0.99946
2114.02483 0.99942
2112.59643 0.99939
2111.16803 0.99935
2109.73964 0.99933
2108.31124 0.99932
2106.88285 0.99933
2105.45445 0.99936
2104.02606 0.99939
2102.59766 0.99942
2101.16927 0.99944
2099.74087 0.99943
2098.31248 0.99940
2096.88408 0.99935
2095.45569 0.99929
2094.02729 0.99922
2092.59890 0.99917
2091.17050 0.99913
2089.74211 0.99910
2088.31371 0.99911
2086.88532 0.99914
2085.45692 0.99920
2084.02853 0.99929
2082.60013 0.99940
2081.17174 0.99952
2079.74334 0.99963
2078.31495 0.99973
2076.88655 0.99982
2075.45816 0.99988
2074.02976 0.99991
2072.60137 0.99992
2071.17297 0.99991
2069.74458 0.99988
2068.31618 0.99984
2066.88779 0.99980
2065.45939 0.99975
2064.03099 0.99970
2062.60260 0.99967
2061.17420 0.99965
2059.74581 0.99964
2058.31741 0.99965
2056.88902 0.99966
2055.46062 0.99968
2054.03223 0.99970
2052.60383 0.99970
2051.17544 0.99969
2049.74704 0.99964
2048.31865 0.99955
2046.89025 0.99944
2045.46186 0.99931
2044.03346 0.99916
2042.60507 0.99902
2041.17667 0.99889
2039.74828 0.99879
2038.31988 0.99872
2036.89149 0.99870
2035.46309 0.99874
2034.03470 0.99883
2032.60630 0.99896
2031.17791 0.99911
2029.74951 0.99927
2028.32112 0.99941
2026.89272 0.99949
2025.46433 0.99953
2024.03593 0.99950
2022.60754 0.99943
2021.17914 0.99933
2019.75075 0.99920
2018.32235 0.99907
2016.89395 0.99896
2015.46556 0.99888
2014.03716 0.99885
2012.60877 0.99887
2011.18037 0.99893
2009.75198 0.99903
2008.32358 0.99916
2006.89519 0.99928
2005.46679 0.99938
2004.03840 0.99944
2002.61000 0.99947
2001.18161 0.99948
1999.75321 0.99947
1998.32482 0.99944
1996.89642 0.99940
1995.46803 0.99936
1994.03963 0.99932
1992.61124 0.99930
1991.18284 0.99931
1989.75445 0.99933
1988.32605 0.99937
1986.89766 0.99941
1985.46926 0.99944
1984.04087 0.99946
1982.61247 0.99946
1981.18408 0.99945
1979.75568 0.99943
1978.32729 0.99940
1976.89889 0.99935
1975.47050 0.99928
1974.04210 0.99919
1972.61371 0.99909
1971.18531 0.99900
1969.75691 0.99893
1968.32852 0.99888
1966.90012 0.99886
1965.47173 0.99885
1964.04333 0.99887
1962.61494 0.99889
1961.18654 0.99893
1959.75815 0.99898
1958.32975 0.99905
1956.90136 0.99912
1955.47296 0.99919
1954.04457 0.99925
1952.61617 0.99929
1951.18778 0.99932
1949.75938 0.99935
1948.33099 0.99936
1946.90259 0.99937
1945.47420 0.99937
1944.04580 0.99936
1942.61741 0.99935
1941.18901 0.99933
1939.76062 0.99930
1938.33222 0.99927
1936.90383 0.99924
1935.47543 0.99921
1934.04704 0.99920
1932.61864 0.99919
1931.19025 0.99919
1929.76185 0.99921
1928.33346 0.99923
1926.90506 0.99926
1925.47667 0.99930
1924.04827 0.99935
1922.61987 0.99940
1921.19148 0.99945
1919.76308 0.99949
1918.33469 0.99951
1916.90629 0.99952
1915.47790 0.99952
1914.04950 0.99950
1912.62111 0.99948
1911.19271 0.99946
1909.76432 0.99943
1908.33592 0.99941
1906.90753 0.99938
1905.47913 0.99935
1904.05074 0.99932
1902.62234 0.99930
1901.19395 0.99929
1899.76555 0.99927
1898.33716 0.99926
1896.90876 0.99925
1895.48037 0.99924
1894.05197 0.99924
1892.62358 0.99924
1891.19518 0.99924
1889.76679 0.99925
1888.33839 0.99926
1886.91000 0.99927
1885.48160 0.99927
1884.05321 0.99927
1882.62481 0.99928
1881.19642 0.99930
1879.76802 0.99931
1878.33963 0.99934
1876.91123 0.99936
1875.48283 0.99940
1874.05444 0.99943
1872.62604 0.99948
1871.19765 0.99951
1869.76925 0.99954
1868.34086 0.99955
1866.91246 0.99954
1865.48407 0.99951
1864.05567 0.99946
1862.62728 0.99941
1861.19888 0.99936
1859.77049 0.99931
1858.34209 0.99927
1856.91370 0.99925
1855.48530 0.99925
1854.05691 0.99927
1852.62851 0.99931
1851.20012 0.99936
1849.77172 0.99942
1848.34333 0.99947
1846.91493 0.99950
1845.48654 0.99952
1844.05814 0.99952
1842.62975 0.99951
1841.20135 0.99950
1839.77296 0.99950
1838.34456 0.99950
1836.91617 0.99952
1835.48777 0.99954
1834.05938 0.99957
1832.63098 0.99960
1831.20258 0.99963
1829.77419 0.99965
1828.34579 0.99964
1826.91740 0.99960
1825.48900 0.99955
1824.06061 0.99948
1822.63221 0.99940
1821.20382 0.99931
1819.77542 0.99923
1818.34703 0.99917
1816.91863 0.99912
1815.49024 0.99910
1814.06184 0.99909
1812.63345 0.99909
1811.20505 0.99911
1809.77666 0.99913
1808.34826 0.99917
1806.91987 0.99922
1805.49147 0.99927
1804.06308 0.99933
1802.63468 0.99940
1801.20629 0.99946
1799.77789 0.99952
1798.34950 0.99956
1796.92110 0.99959
1795.49271 0.99960
1794.06431 0.99959
1792.63592 0.99955
1791.20752 0.99948
1789.77913 0.99940
1788.35073 0.99933
1786.92234 0.99926
1785.49394 0.99922
1784.06554 0.99921
1782.63715 0.99923
1781.20875 0.99927
1779.78036 0.99933
1778.35196 0.99941
1776.92357 0.99948
1775.49517 0.99956
1774.06678 0.99962
1772.63838 0.99966
1771.20999 0.99966
1769.78159 0.99962
1768.35320 0.99956
1766.92480 0.99949
1765.49641 0.99942
1764.06801 0.99936
1762.63962 0.99931
1761.21122 0.99929
1759.78283 0.99929
1758.35443 0.99931
1756.92604 0.99937
1755.49764 0.99944
1754.06925 0.99953
1752.64085 0.99962
1751.21246 0.99972
1749.78406 0.99980
1748.35567 0.99986
1746.92727 0.99991
1745.49888 0.99995
1744.07048 0.99997
1742.64209 0.99999
1741.21369 1.00000
1739.78530 1.00000
1738.35690 0.99998
1736.92850 0.99994
1735.50011 0.99989
1734.07171 0.99981
1732.64332 0.99972
1731.21492 0.99963
1729.78653 0.99954
1728.35813 0.99947
1726.92974 0.99942
1725.50134 0.99939
1724.07295 0.99939
1722.64455 0.99941
1721.21616 0.99947
1719.78776 0.99953
1718.35937 0.99960
1716.93097 0.99966
1715.50258 0.99970
1714.07418 0.99973
1712.64579 0.99975
1711.21739 0.99977
1709.78900 0.99981
1708.36060 0.99985
1706.93221 0.99990
1705.50381 0.99995
1704.07542 0.99998
1702.64702 1.00000
1701.21863 1.00000
1699.79023 0.99998
1698.36184 0.99993
1696.93344 0.99985
1695.50505 0.99973
1694.07665 0.99959
1692.64826 0.99943
1691.21986 0.99928
1689.79146 0.99912
1688.36307 0.99898
1686.93467 0.99884
1685.50628 0.99870
1684.07788 0.99853
1682.64949 0.99834
1681.22109 0.99812
1679.79270 0.99789
1678.36430 0.99764
1676.93591 0.99738
1675.50751 0.99710
1674.07912 0.99680
1672.65072 0.99648
1671.22233 0.99615
1669.79393 0.99581
1668.36554 0.99546
1666.93714 0.99513
1665.50875 0.99480
1664.08035 0.99449
1662.65196 0.99421
1661.22356 0.99395
1659.79517 0.99372
1658.36677 0.99354
1656.93838 0.99340
1655.50998 0.99330
1654.08159 0.99322
1652.65319 0.99315
1651.22480 0.99310
1649.79640 0.99305
1648.36801 0.99301
1646.93961 0.99297
1645.51122 0.99293
1644.08282 0.99290
1642.65442 0.99288
1641.22603 0.99287
1639.79763 0.99289
1638.36924 0.99292
1636.94084 0.99298
1635.51245 0.99304
1634.08405 0.99313
1632.65566 0.99323
1631.22726 0.99334
1629.79887 0.99348
1628.37047 0.99363
1626.94208 0.99379
1625.51368 0.99395
1624.08529 0.99411
1622.65689 0.99425
1621.22850 0.99438
1619.80010 0.99449
1618.37171 0.99458
1616.94331 0.99466
1615.51492 0.99470
1614.08652 0.99471
1612.65813 0.99471
1611.22973 0.99469
1609.80134 0.99466
1608.37294 0.99462
1606.94455 0.99457
1605.51615 0.99449
1604.08776 0.99439
1602.65936 0.99427
1601.23097 0.99412
1599.80257 0.99394
1598.37418 0.99373
1596.94578 0.99349
1595.51738 0.99322
1594.08899 0.99293
1592.66059 0.99261
1591.23220 0.99229
1589.80380 0.99197
1588.37541 0.99166
1586.94701 0.99135
1585.51862 0.99105
1584.09022 0.99078
1582.66183 0.99053
1581.23343 0.99030
1579.80504 0.99010
1578.37664 0.98990
1576.94825 0.98972
1575.51985 0.98954
1574.09146 0.98938
1572.66306 0.98924
1571.23467 0.98912
1569.80627 0.98903
1568.37788 0.98897
1566.94948 0.98894
1565.52109 0.98893
1564.09269 0.98895
1562.66430 0.98900
1561.23590 0.98905
1559.80751 0.98912
1558.37911 0.98919
1556.95072 0.98928
1555.52232 0.98937
1554.09393 0.98949
1552.66553 0.98965
1551.23714 0.98986
1549.80874 0.99012
1548.38034 0.99043
1546.95195 0.99080
1545.52355 0.99120
1544.09516 0.99162
1542.66676 0.99205
1541.23837 0.99246
1539.80997 0.99283
1538.38158 0.99317
1536.95318 0.99347
1535.52479 0.99375
1534.09639 0.99403
1532.66800 0.99430
1531.23960 0.99458
1529.81121 0.99485
1528.38281 0.99513
1526.95442 0.99541
1525.52602 0.99568
1524.09763 0.99594
1522.66923 0.99620
1521.24084 0.99643
1519.81244 0.99664
1518.38405 0.99683
1516.95565 0.99699
1515.52726 0.99716
1514.09886 0.99733
1512.67047 0.99751
1511.24207 0.99771
1509.81368 0.99790
1508.38528 0.99808
1506.95689 0.99822
1505.52849 0.99833
1504.10010 0.99842
1502.67170 0.99849
1501.24330 0.99857
1499.81491 0.99864
1498.38651 0.99870
1496.95812 0.99876
1495.52972 0.99882
1494.10133 0.99887
1492.67293 0.99893
1491.24454 0.99899
1489.81614 0.99905
1488.38775 0.99910
1486.95935 0.99912
1485.53096 0.99912
1484.10256 0.99911
1482.67417 0.99909
1481.24577 0.99908
1479.81738 0.99907
1478.38898 0.99907
1476.96059 0.99906
1475.53219 0.99905
1474.10380 0.99903
1472.67540 0.99901
1471.24701 0.99899
1469.81861 0.99898
1468.39022 0.99897
1466.96182 0.99897
1465.53343 0.99897
1464.10503 0.99897
1462.67664 0.99897
1461.24824 0.99897
1459.81985 0.99897
1458.39145 0.99894
1456.96306 0.99889
1455.53466 0.99881
1454.10626 0.99870
1452.67787 0.99857
1451.24947 0.99843
1449.82108 0.99829
1448.39268 0.99816
1446.96429 0.99805
1445.53589 0.99796
1444.10750 0.99790
1442.67910 0.99786
1441.25071 0.99785
1439.82231 0.99786
1438.39392 0.99788
1436.96552 0.99790
1435.53713 0.99791
1434.10873 0.99790
1432.68034 0.99788
1431.25194 0.99784
1429.82355 0.99780
1428.39515 0.99774
1426.96676 0.99767
1425.53836 0.99758
1424.10997 0.99748
1422.68157 0.99736
1421.25318 0.99722
1419.82478 0.99706
1418.39639 0.99688
1416.96799 0.99667
1415.53960 0.99644
1414.11120 0.99620
1412.68281 0.99596
1411.25441 0.99573
1409.82602 0.99550
1408.39762 0.99529
1406.96922 0.99510
1405.54083 0.99492
1404.11243 0.99476
1402.68404 0.99462
1401.25564 0.99450
1399.82725 0.99438
1398.39885 0.99428
1396.97046 0.99418
1395.54206 0.99409
1394.11367 0.99400
1392.68527 0.99392
1391.25688 0.99388
1389.82848 0.99386
1388.40009 0.99388
1386.97169 0.99393
1385.54330 0.99402
1384.11490 0.99415
1382.68651 0.99431
1381.25811 0.99450
1379.82972 0.99472
1378.40132 0.99497
1376.97293 0.99524
1375.54453 0.99551
1374.11614 0.99579
1372.68774 0.99605
1371.25935 0.99630
1369.83095 0.99653
1368.40256 0.99675
1366.97416 0.99695
1365.54577 0.99713
1364.11737 0.99730
1362.68898 0.99744
1361.26058 0.99756
1359.83218 0.99765
1358.40379 0.99773
1356.97539 0.99780
1355.54700 0.99786
1354.11860 0.99792
1352.69021 0.99798
1351.26181 0.99804
1349.83342 0.99810
1348.40502 0.99817
1346.97663 0.99824
1345.54823 0.99832
1344.11984 0.99841
1342.69144 0.99849
1341.26305 0.99857
1339.83465 0.99863
1338.40626 0.99868
1336.97786 0.99871
1335.54947 0.99872
1334.12107 0.99872
1332.69268 0.99872
1331.26428 0.99872
1329.83589 0.99871
1328.40749 0.99871
1326.97910 0.99872
1325.55070 0.99874
1324.12231 0.99876
1322.69391 0.99879
1321.26552 0.99882
1319.83712 0.99884
1318.40873 0.99886
1316.98033 0.99886
1315.55194 0.99885
1314.12354 0.99882
1312.69514 0.99878
1311.26675 0.99874
1309.83835 0.99868
1308.40996 0.99863
1306.98156 0.99857
1305.55317 0.99851
1304.12477 0.99845
1302.69638 0.99840
1301.26798 0.99836
1299.83959 0.99832
1298.41119 0.99829
1296.98280 0.99826
1295.55440 0.99823
1294.12601 0.99820
1292.69761 0.99817
1291.26922 0.99813
1289.84082 0.99809
1288.41243 0.99805
1286.98403 0.99800
1285.55564 0.99796
1284.12724 0.99792
1282.69885 0.99788
1281.27045 0.99786
1279.84206 0.99785
1278.41366 0.99783
1276.98527 0.99782
1275.55687 0.99781
1274.12848 0.99778
1272.70008 0.99774
1271.27169 0.99767
1269.84329 0.99758
1268.41490 0.99747
1266.98650 0.99735
1265.55810 0.99724
1264.12971 0.99713
1262.70131 0.99705
1261.27292 0.99702
1259.84452 0.99702
1258.41613 0.99707
1256.98773 0.99717
1255.55934 0.99731
1254.13094 0.99747
1252.70255 0.99764
1251.27415 0.99782
1249.84576 0.99798
1248.41736 0.99813
1246.98897 0.99826
1245.56057 0.99836
1244.13218 0.99844
1242.70378 0.99850
1241.27539 0.99854
1239.84699 0.99858
1238.41860 0.99862
1236.99020 0.99866
1235.56181 0.99870
1234.13341 0.99875
1232.70502 0.99880
1231.27662 0.99885
1229.84823 0.99890
1228.41983 0.99894
1226.99144 0.99898
1225.56304 0.99901
1224.13465 0.99904
1222.70625 0.99906
1221.27786 0.99907
1219.84946 0.99908
1218.42106 0.99908
1216.99267 0.99908
1215.56427 0.99907
1214.13588 0.99907
1212.70748 0.99906
1211.27909 0.99905
1209.85069 0.99904
1208.42230 0.99903
1206.99390 0.99903
1205.56551 0.99904
1204.13711 0.99905
1202.70872 0.99906
1201.28032 0.99908
1199.85193 0.99910
1198.42353 0.99913
1196.99514 0.99916
1195.56674 0.99918
1194.13835 0.99920
1192.70995 0.99922
1191.28156 0.99924
1189.85316 0.99926
1188.42477 0.99928
1186.99637 0.99929
1185.56798 0.99929
1184.13958 0.99929
1182.71119 0.99929
1181.28279 0.99928
1179.85440 0.99927
1178.42600 0.99925
1176.99761 0.99924
1175.56921 0.99922
1174.14082 0.99920
1172.71242 0.99919
1171.28402 0.99918
1169.85563 0.99918
1168.42723 0.99917
1166.99884 0.99917
1165.57044 0.99916
1164.14205 0.99915
1162.71365 0.99914
1161.28526 0.99913
1159.85686 0.99912
1158.42847 0.99910
1157.00007 0.99907
1155.57168 0.99905
1154.14328 0.99902
1152.71489 0.99900
1151.28649 0.99897
1149.85810 0.99895
1148.42970 0.99892
1147.00131 0.99890
1145.57291 0.99887
1144.14452 0.99885
1142.71612 0.99883
1141.28773 0.99882
1139.85933 0.99880
1138.43094 0.99879
1137.00254 0.99878
1135.57415 0.99876
1134.14575 0.99875
1132.71736 0.99873
1131.28896 0.99870
1129.86057 0.99867
1128.43217 0.99863
1127.00378 0.99858
1125.57538 0.99852
1124.14698 0.99845
1122.71859 0.99837
1121.29019 0.99829
1119.86180 0.99820
1118.43340 0.99812
1117.00501 0.99803
1115.57661 0.99795
1114.14822 0.99788
1112.71982 0.99780
1111.29143 0.99773
1109.86303 0.99765
1108.43464 0.99758
1107.00624 0.99751
1105.57785 0.99744
1104.14945 0.99737
1102.72106 0.99729
1101.29266 0.99722
1099.86427 0.99715
1098.43587 0.99710
1097.00748 0.99706
1095.57908 0.99703
1094.15069 0.99702
1092.72229 0.99703
1091.29390 0.99704
1089.86550 0.99706
1088.43711 0.99709
1087.00871 0.99713
1085.58032 0.99716
1084.15192 0.99720
1082.72353 0.99723
1081.29513 0.99726
1079.86673 0.99730
1078.43834 0.99733
1077.00994 0.99737
1075.58155 0.99740
1074.15315 0.99744
1072.72476 0.99748
1071.29636 0.99752
1069.86797 0.99755
1068.43957 0.99757
1067.01118 0.99758
1065.58278 0.99759
1064.15439 0.99759
1062.72599 0.99759
1061.29760 0.99759
1059.86920 0.99759
1058.44081 0.99758
1057.01241 0.99758
1055.58402 0.99758
1054.15562 0.99758
1052.72723 0.99757
1051.29883 0.99756
1049.87044 0.99755
1048.44204 0.99753
1047.01365 0.99750
1045.58525 0.99747
1044.15686 0.99744
1042.72846 0.99740
1041.30007 0.99736
1039.87167 0.99733
1038.44328 0.99731
1037.01488 0.99729
1035.58649 0.99727
1034.15809 0.99725
1032.72969 0.99723
1031.30130 0.99720
1029.87290 0.99717
1028.44451 0.99713
1027.01611 0.99710
1025.58772 0.99707
1024.15932 0.99705
1022.73093 0.99704
1021.30253 0.99706
1019.87414 0.99710
1018.44574 0.99717
1017.01735 0.99727
1015.58895 0.99739
1014.16056 0.99753
1012.73216 0.99767
1011.30377 0.99782
1009.87537 0.99796
1008.44698 0.99809
1007.01858 0.99821
1005.59019 0.99830
1004.16179 0.99837
1002.73340 0.99842
1001.30500 0.99845
999.87661 0.99847
998.44821 0.99847
997.01982 0.99846
995.59142 0.99845
994.16303 0.99844
992.73463 0.99843
991.30624 0.99843
989.87784 0.99843
988.44945 0.99844
987.02105 0.99847
985.59265 0.99850
984.16426 0.99854
982.73586 0.99858
981.30747 0.99862
979.87907 0.99865
978.45068 0.99868
977.02228 0.99870
975.59389 0.99871
974.16549 0.99871
972.73710 0.99870
971.30870 0.99869
969.88031 0.99867
968.45191 0.99865
967.02352 0.99863
965.59512 0.99861
964.16673 0.99859
962.73833 0.99857
961.30994 0.99855
959.88154 0.99853
958.45315 0.99851
957.02475 0.99848
955.59636 0.99845
954.16796 0.99843
952.73957 0.99842
951.31117 0.99841
949.88278 0.99841
948.45438 0.99841
947.02599 0.99842
945.59759 0.99844
944.16920 0.99847
942.74080 0.99850
941.31241 0.99853
939.88401 0.99856
938.45561 0.99858
937.02722 0.99860
935.59882 0.99862
934.17043 0.99863
932.74203 0.99863
931.31364 0.99863
929.88524 0.99863
928.45685 0.99862
927.02845 0.99862
925.60006 0.99860
924.17166 0.99858
922.74327 0.99856
921.31487 0.99855
919.88648 0.99853
918.45808 0.99852
917.02969 0.99851
915.60129 0.99849
914.17290 0.99848
912.74450 0.99846
911.31611 0.99844
909.88771 0.99842
908.45932 0.99840
907.03092 0.99838
905.60253 0.99837
904.17413 0.99837
902.74574 0.99838
901.31734 0.99839
899.88895 0.99842
898.46055 0.99847
897.03216 0.99852
895.60376 0.99857
894.17537 0.99862
892.74697 0.99867
891.31857 0.99870
889.89018 0.99872
888.46178 0.99872
887.03339 0.99871
885.60499 0.99868
884.17660 0.99864
882.74820 0.99860
881.31981 0.99856
879.89141 0.99853
878.46302 0.99851
877.03462 0.99849
875.60623 0.99849
874.17783 0.99850
872.74944 0.99852
871.32104 0.99856
869.89265 0.99861
868.46425 0.99867
867.03586 0.99873
865.60746 0.99879
864.17907 0.99886
862.75067 0.99893
861.32228 0.99899
859.89388 0.99904
858.46549 0.99909
857.03709 0.99911
855.60870 0.99912
854.18030 0.99910
852.75191 0.99905
851.32351 0.99899
849.89512 0.99890
848.46672 0.99881
847.03833 0.99871
845.60993 0.99862
844.18153 0.99853
842.75314 0.99845
841.32474 0.99839
839.89635 0.99836
838.46795 0.99834
837.03956 0.99834
835.61116 0.99836
834.18277 0.99838
832.75437 0.99840
831.32598 0.99842
829.89758 0.99843
828.46919 0.99843
827.04079 0.99843
825.61240 0.99843
824.18400 0.99842
822.75561 0.99841
821.32721 0.99839
819.89882 0.99836
818.47042 0.99833
817.04203 0.99828
815.61363 0.99823
814.18524 0.99817
812.75684 0.99810
811.32845 0.99801
809.90005 0.99791
808.47166 0.99781
807.04326 0.99771
805.61487 0.99764
804.18647 0.99758
802.75808 0.99756
801.32968 0.99756
799.90129 0.99758
798.47289 0.99763
797.04449 0.99770
795.61610 0.99780
794.18770 0.99790
792.75931 0.99802
791.33091 0.99813
789.90252 0.99824
788.47412 0.99833
787.04573 0.99841
785.61733 0.99847
784.18894 0.99852
782.76054 0.99855
781.33215 0.99858
779.90375 0.99861
778.47536 0.99865
777.04696 0.99868
775.61857 0.99872
774.19017 0.99877
772.76178 0.99883
771.33338 0.99889
769.90499 0.99894
768.47659 0.99900
767.04820 0.99904
765.61980 0.99908
764.19141 0.99911
762.76301 0.99913
761.33462 0.99913
759.90622 0.99912
758.47783 0.99912
757.04943 0.99911
755.62104 0.99911
754.19264 0.99913
752.76425 0.99915
751.33585 0.99919
749.90745 0.99922
748.47906 0.99925
747.05066 0.99927
745.62227 0.99928
744.19387 0.99927
742.76548 0.99925
741.33708 0.99922
739.90869 0.99917
738.48029 0.99911
737.05190 0.99905
735.62350 0.99899
734.19511 0.99895
732.76671 0.99894
731.33832 0.99896
729.90992 0.99902
728.48153 0.99912
727.05313 0.99923
725.62474 0.99934
724.19634 0.99946
722.76795 0.99958
721.33955 0.99968
719.91116 0.99978
718.48276 0.99986
717.05437 0.99992
715.62597 0.99997
714.19758 0.99999
712.76918 1.00000
711.34079 1.00000
709.91239 1.00000
708.48400 1.00000
707.05560 1.00000
705.62721 0.99999
704.19881 0.99995
702.77041 0.99988
701.34202 0.99978
699.91362 0.99965
698.48523 0.99950
697.05683 0.99934
695.62844 0.99918
694.20004 0.99904
692.77165 0.99891
691.34325 0.99883
689.91486 0.99879
688.48646 0.99880
687.05807 0.99887
685.62967 0.99896
684.20128 0.99906
682.77288 0.99916
681.34449 0.99922
679.91609 0.99925
678.48770 0.99923
677.05930 0.99917
675.63091 0.99908
674.20251 0.99897
672.77412 0.99885
671.34572 0.99875
669.91733 0.99867
668.48893 0.99865
667.06054 0.99868
665.63214 0.99876
664.20375 0.99885
662.77535 0.99894
661.34696 0.99901
659.91856 0.99905
658.49017 0.99906
657.06177 0.99904
655.63337 0.99899
654.20498 0.99892
652.77658 0.99883
651.34819 0.99875
649.91979 0.99868
648.49140 0.99865
647.06300 0.99868
645.63461 0.99876
644.20621 0.99889
642.77782 0.99905
641.34942 0.99922
639.92103 0.99938
638.49263 0.99953
637.06424 0.99966
635.63584 0.99978
634.20745 0.99987
632.77905 0.99992
631.35066 0.99993
629.92226 0.99990
628.49387 0.99986
627.06547 0.99982
625.63708 0.99980
624.20868 0.99979
622.78029 0.99979
621.35189 0.99980
619.92350 0.99980
618.49510 0.99981
617.06671 0.99982
615.63831 0.99984
614.20992 0.99987
612.78152 0.99989
611.35313 0.99990
609.92473 0.99990
608.49633 0.99989
607.06794 0.99987
605.63954 0.99983
604.21115 0.99978
602.78275 0.99972
601.35436 0.99966
599.92596 0.99959
598.49757 0.99954
597.06917 0.99949
595.64078 0.99946
594.21238 0.99946
592.78399 0.99948
591.35559 0.99951
589.92720 0.99953
588.49880 0.99954
587.07041 0.99954
585.64201 0.99951
584.21362 0.99947
582.78522 0.99940
581.35683 0.99934
579.92843 0.99931
578.50004 0.99933
577.07164 0.99939
575.64325 0.99948
574.21485 0.99960
572.78646 0.99972
571.35806 0.99982
569.92967 0.99986
568.50127 0.99990
567.07288 0.99984
565.64448 0.99967
564.21609 0.99942
562.78769 0.99911
561.35929 0.99878
559.93090 0.99848
558.50250 0.99822
557.07411 0.99802
555.64571 0.99790
554.21732 0.99784
552.78892 0.99786
551.36053 0.99793
549.93213 0.99805
548.50374 0.99820
547.07534 0.99834
545.64695 0.99847
544.21855 0.99857
542.79016 0.99865
541.36176 0.99873
539.93337 0.99882
538.50497 0.99894
537.07658 0.99904
535.64818 0.99913
534.21979 0.99917
532.79139 0.99917
531.36300 0.99915
529.93460 0.99911
528.50621 0.99904
527.07781 0.99894
525.64942 0.99882
524.22102 0.99869
522.79263 0.99857
521.36423 0.99849
519.93584 0.99848
518.50744 0.99856
517.07905 0.99872
515.65065 0.99893
514.22225 0.99917
512.79386 0.99941
511.36546 0.99962
509.93707 0.99980
508.50867 0.99993
507.08028 1.00000
505.65188 1.00000
504.22349 0.99992
502.79509 0.99977
501.36670 0.99958
499.93830 0.99936
498.50991 0.99913
497.08151 0.99892
495.65312 0.99873
494.22472 0.99857
492.79633 0.99846
491.36793 0.99842
489.93954 0.99844
488.51114 0.99849
487.08275 0.99855
485.65435 0.99861
484.22596 0.99865
482.79756 0.99863
481.36917 0.99855
479.94077 0.99839
478.51238 0.99813
477.08398 0.99778
475.65559 0.99734
474.22719 0.99686
472.79880 0.99640
471.37040 0.99604
469.94201 0.99583
468.51361 0.99579
467.08521 0.99590
465.65682 0.99615
464.22842 0.99649
462.80003 0.99688
461.37163 0.99729
459.94324 0.99768
458.51484 0.99802
457.08645 0.99829
455.65805 0.99848
454.22966 0.99858
452.80126 0.99862
451.37287 0.99865
449.94447 0.99871
448.51608 0.99882
447.08768 0.99900
445.65929 0.99923
444.23089 0.99948
442.80250 0.99970
441.37410 0.99985
439.94571 0.99991
438.51731 0.99985
437.08892 0.99971
435.66052 0.99951
434.23213 0.99929
432.80373 0.99908
431.37534 0.99888
429.94694 0.99867
428.51855 0.99845
427.09015 0.99823
425.66176 0.99801
424.23336 0.99782
422.80497 0.99769
421.37657 0.99768
419.94817 0.99776
418.51978 0.99791
417.09138 0.99811
415.66299 0.99835
414.23459 0.99866
412.80620 0.99902
411.37780 0.99944
409.94941 0.99951
408.52101 0.99958
407.09262 0.99965
405.66422 0.99972
404.23583 0.99979
402.80743 0.99986
401.37904 0.99993
399.95064 1.00000
