3998.07803 1.00000
3996.64964 0.99999
3995.22124 0.99999
3993.79285 0.99998
3992.36445 0.99998
3990.93605 0.99997
3989.50766 0.99997
3988.07926 0.99996
3986.65087 0.99996
3985.22247 0.99996
3983.79408 0.99996
3982.36568 0.99995
3980.93729 0.99995
3979.50889 0.99994
3978.08050 0.99993
3976.65210 0.99992
3975.22371 0.99990
3973.79531 0.99989
3972.36692 0.99987
3970.93852 0.99985
3969.51013 0.99983
3968.08173 0.99982
3966.65334 0.99980
3965.22494 0.99979
3963.79655 0.99976
3962.36815 0.99974
3960.93976 0.99972
3959.51136 0.99970
3958.08297 0.99969
3956.65457 0.99968
3955.22618 0.99968
3953.79778 0.99969
3952.36939 0.99970
3950.94099 0.99972
3949.51260 0.99974
3948.08420 0.99976
3946.65581 0.99977
3945.22741 0.99977
3943.79901 0.99975
3942.37062 0.99974
3940.94222 0.99971
3939.51383 0.99968
3938.08543 0.99965
3936.65704 0.99963
3935.22864 0.99961
3933.80025 0.99961
3932.37185 0.99962
3930.94346 0.99965
3929.51506 0.99968
3928.08667 0.99972
3926.65827 0.99976
3925.22988 0.99979
3923.80148 0.99981
3922.37309 0.99983
3920.94469 0.99983
3919.51630 0.99983
3918.08790 0.99981
3916.65951 0.99978
3915.23111 0.99974
3913.80272 0.99970
3912.37432 0.99966
3910.94593 0.99963
3909.51753 0.99960
3908.08914 0.99957
3906.66074 0.99955
3905.23235 0.99954
3903.80395 0.99953
3902.37556 0.99954
3900.94716 0.99955
3899.51877 0.99958
3898.09037 0.99961
3896.66197 0.99963
3895.23358 0.99965
3893.80518 0.99966
3892.37679 0.99967
3890.94839 0.99966
3889.52000 0.99965
3888.09160 0.99964
3886.66321 0.99962
3885.23481 0.99960
3883.80642 0.99958
3882.37802 0.99956
3880.94963 0.99956
3879.52123 0.99957
3878.09284 0.99958
3876.66444 0.99960
3875.23605 0.99962
3873.80765 0.99964
3872.37926 0.99966
3870.95086 0.99967
3869.52247 0.99968
3868.09407 0.99968
3866.66568 0.99967
3865.23728 0.99964
3863.80889 0.99961
3862.38049 0.99956
3860.95210 0.99951
3859.52370 0.99946
3858.09531 0.99940
3856.66691 0.99936
3855.23852 0.99933
3853.81012 0.99932
3852.38173 0.99931
3850.95333 0.99933
3849.52493 0.99936
3848.09654 0.99939
3846.66814 0.99943
3845.23975 0.99946
3843.81135 0.99948
3842.38296 0.99948
3840.95456 0.99947
3839.52617 0.99944
3838.09777 0.99940
3836.66938 0.99936
3835.24098 0.99932
3833.81259 0.99929
3832.38419 0.99927
3830.95580 0.99927
3829.52740 0.99928
3828.09901 0.99929
3826.67061 0.99931
3825.24222 0.99933
3823.81382 0.99934
3822.38543 0.99934
3820.95703 0.99933
3819.52864 0.99930
3818.10024 0.99926
3816.67185 0.99922
3815.24345 0.99919
3813.81506 0.99916
3812.38666 0.99914
3810.95827 0.99914
3809.52987 0.99914
3808.10148 0.99915
3806.67308 0.99916
3805.24469 0.99918
3803.81629 0.99919
3802.38789 0.99919
3800.95950 0.99918
3799.53110 0.99916
3798.10271 0.99913
3796.67431 0.99909
3795.24592 0.99905
3793.81752 0.99900
3792.38913 0.99896
3790.96073 0.99892
3789.53234 0.99888
3788.10394 0.99886
3786.67555 0.99884
3785.24715 0.99882
3783.81876 0.99882
3782.39036 0.99881
3780.96197 0.99882
3779.53357 0.99882
3778.10518 0.99883
3776.67678 0.99883
3775.24839 0.99883
3773.81999 0.99884
3772.39160 0.99885
3770.96320 0.99886
3769.53481 0.99888
3768.10641 0.99890
3766.67802 0.99892
3765.24962 0.99894
3763.82123 0.99896
3762.39283 0.99899
3760.96444 0.99903
3759.53604 0.99906
3758.10765 0.99909
3756.67925 0.99910
3755.25085 0.99910
3753.82246 0.99909
3752.39406 0.99906
3750.96567 0.99902
3749.53727 0.99896
3748.10888 0.99890
3746.68048 0.99883
3745.25209 0.99875
3743.82369 0.99867
3742.39530 0.99860
3740.96690 0.99853
3739.53851 0.99847
3738.11011 0.99842
3736.68172 0.99837
3735.25332 0.99833
3733.82493 0.99828
3732.39653 0.99823
3730.96814 0.99818
3729.53974 0.99815
3728.11135 0.99812
3726.68295 0.99810
3725.25456 0.99809
3723.82616 0.99809
3722.39777 0.99811
3720.96937 0.99813
3719.54098 0.99815
3718.11258 0.99818
3716.68419 0.99820
3715.25579 0.99822
3713.82740 0.99822
3712.39900 0.99820
3710.97061 0.99818
3709.54221 0.99814
3708.11381 0.99810
3706.68542 0.99806
3705.25702 0.99803
3703.82863 0.99800
3702.40023 0.99800
3700.97184 0.99800
3699.54344 0.99802
3698.11505 0.99805
3696.68665 0.99809
3695.25826 0.99814
3693.82986 0.99819
3692.40147 0.99823
3690.97307 0.99826
3689.54468 0.99827
3688.11628 0.99828
3686.68789 0.99827
3685.25949 0.99827
3683.83110 0.99827
3682.40270 0.99828
3680.97431 0.99831
3679.54591 0.99834
3678.11752 0.99838
3676.68912 0.99842
3675.26073 0.99846
3673.83233 0.99850
3672.40394 0.99854
3670.97554 0.99856
3669.54715 0.99857
3668.11875 0.99857
3666.69036 0.99856
3665.26196 0.99853
3663.83357 0.99851
3662.40517 0.99849
3660.97677 0.99849
3659.54838 0.99849
3658.11998 0.99850
3656.69159 0.99852
3655.26319 0.99855
3653.83480 0.99858
3652.40640 0.99861
3650.97801 0.99863
3649.54961 0.99865
3648.12122 0.99866
3646.69282 0.99864
3645.26443 0.99860
3643.83603 0.99853
3642.40764 0.99844
3640.97924 0.99832
3639.55085 0.99819
3638.12245 0.99805
3636.69406 0.99791
3635.26566 0.99778
3633.83727 0.99765
3632.40887 0.99754
3630.98048 0.99745
3629.55208 0.99738
3628.12369 0.99734
3626.69529 0.99732
3625.26690 0.99732
3623.83850 0.99733
3622.41011 0.99735
3620.98171 0.99737
3619.55332 0.99740
3618.12492 0.99741
3616.69653 0.99743
3615.26813 0.99744
3613.83973 0.99745
3612.41134 0.99745
3610.98294 0.99743
3609.55455 0.99740
3608.12615 0.99736
3606.69776 0.99732
3605.26936 0.99727
3603.84097 0.99722
3602.41257 0.99718
3600.98418 0.99714
3599.55578 0.99711
3598.12739 0.99708
3596.69899 0.99705
3595.27060 0.99703
3593.84220 0.99701
3592.41381 0.99699
3590.98541 0.99697
3589.55702 0.99694
3588.12862 0.99690
3586.70023 0.99686
3585.27183 0.99680
3583.84344 0.99675
3582.41504 0.99670
3580.98665 0.99666
3579.55825 0.99663
3578.12986 0.99661
3576.70146 0.99659
3575.27307 0.99659
3573.84467 0.99660
3572.41628 0.99660
3570.98788 0.99660
3569.55949 0.99660
3568.13109 0.99659
3566.70269 0.99658
3565.27430 0.99657
3563.84590 0.99656
3562.41751 0.99655
3560.98911 0.99654
3559.56072 0.99654
3558.13232 0.99654
3556.70393 0.99655
3555.27553 0.99656
3553.84714 0.99658
3552.41874 0.99658
3550.99035 0.99657
3549.56195 0.99655
3548.13356 0.99652
3546.70516 0.99648
3545.27677 0.99642
3543.84837 0.99637
3542.41998 0.99631
3540.99158 0.99625
3539.56319 0.99618
3538.13479 0.99611
3536.70640 0.99605
3535.27800 0.99599
3533.84961 0.99593
3532.42121 0.99588
3530.99282 0.99583
3529.56442 0.99578
3528.13603 0.99574
3526.70763 0.99570
3525.27924 0.99567
3523.85084 0.99564
3522.42245 0.99562
3520.99405 0.99560
3519.56565 0.99558
3518.13726 0.99557
3516.70886 0.99555
3515.28047 0.99554
3513.85207 0.99553
3512.42368 0.99552
3510.99528 0.99552
3509.56689 0.99552
3508.13849 0.99552
3506.71010 0.99552
3505.28170 0.99552
3503.85331 0.99553
3502.42491 0.99554
3500.99652 0.99554
3499.56812 0.99554
3498.13973 0.99554
3496.71133 0.99553
3495.28294 0.99550
3493.85454 0.99547
3492.42615 0.99544
3490.99775 0.99539
3489.56936 0.99535
3488.14096 0.99530
3486.71257 0.99525
3485.28417 0.99521
3483.85578 0.99517
3482.42738 0.99516
3480.99899 0.99516
3479.57059 0.99518
3478.14220 0.99521
3476.71380 0.99523
3475.28541 0.99526
3473.85701 0.99527
3472.42861 0.99528
3471.00022 0.99528
3469.57182 0.99528
3468.14343 0.99526
3466.71503 0.99523
3465.28664 0.99519
3463.85824 0.99515
3462.42985 0.99511
3461.00145 0.99507
3459.57306 0.99504
3458.14466 0.99501
3456.71627 0.99499
3455.28787 0.99498
3453.85948 0.99497
3452.43108 0.99496
3451.00269 0.99496
3449.57429 0.99496
3448.14590 0.99498
3446.71750 0.99501
3445.28911 0.99504
3443.86071 0.99508
3442.43232 0.99511
3441.00392 0.99515
3439.57553 0.99520
3438.14713 0.99524
3436.71874 0.99529
3435.29034 0.99533
3433.86195 0.99536
3432.43355 0.99539
3431.00516 0.99541
3429.57676 0.99541
3428.14837 0.99541
3426.71997 0.99540
3425.29157 0.99538
3423.86318 0.99535
3422.43478 0.99532
3421.00639 0.99529
3419.57799 0.99525
3418.14960 0.99523
3416.72120 0.99522
3415.29281 0.99522
3413.86441 0.99525
3412.43602 0.99530
3411.00762 0.99538
3409.57923 0.99547
3408.15083 0.99559
3406.72244 0.99573
3405.29404 0.99587
3403.86565 0.99601
3402.43725 0.99614
3401.00886 0.99626
3399.58046 0.99635
3398.15207 0.99641
3396.72367 0.99643
3395.29528 0.99643
3393.86688 0.99639
3392.43849 0.99635
3391.01009 0.99629
3389.58170 0.99625
3388.15330 0.99621
3386.72491 0.99620
3385.29651 0.99620
3383.86812 0.99623
3382.43972 0.99628
3381.01133 0.99635
3379.58293 0.99643
3378.15453 0.99653
3376.72614 0.99662
3375.29774 0.99671
3373.86935 0.99680
3372.44095 0.99687
3371.01256 0.99694
3369.58416 0.99700
3368.15577 0.99705
3366.72737 0.99710
3365.29898 0.99714
3363.87058 0.99718
3362.44219 0.99720
3361.01379 0.99723
3359.58540 0.99724
3358.15700 0.99725
3356.72861 0.99726
3355.30021 0.99727
3353.87182 0.99727
3352.44342 0.99725
3351.01503 0.99722
3349.58663 0.99719
3348.15824 0.99715
3346.72984 0.99711
3345.30145 0.99708
3343.87305 0.99706
3342.44466 0.99705
3341.01626 0.99705
3339.58787 0.99707
3338.15947 0.99709
3336.73108 0.99713
3335.30268 0.99718
3333.87428 0.99724
3332.44589 0.99731
3331.01749 0.99737
3329.58910 0.99743
3328.16070 0.99749
3326.73231 0.99756
3325.30391 0.99762
3323.87552 0.99768
3322.44712 0.99774
3321.01873 0.99780
3319.59033 0.99786
3318.16194 0.99790
3316.73354 0.99794
3315.30515 0.99797
3313.87675 0.99800
3312.44836 0.99803
3311.01996 0.99805
3309.59157 0.99808
3308.16317 0.99810
3306.73478 0.99812
3305.30638 0.99815
3303.87799 0.99818
3302.44959 0.99820
3301.02120 0.99822
3299.59280 0.99822
3298.16441 0.99822
3296.73601 0.99821
3295.30762 0.99819
3293.87922 0.99818
3292.45083 0.99818
3291.02243 0.99819
3289.59404 0.99821
3288.16564 0.99824
3286.73724 0.99828
3285.30885 0.99832
3283.88045 0.99838
3282.45206 0.99844
3281.02366 0.99851
3279.59527 0.99857
3278.16687 0.99864
3276.73848 0.99871
3275.31008 0.99879
3273.88169 0.99887
3272.45329 0.99895
3271.02490 0.99902
3269.59650 0.99909
3268.16811 0.99915
3266.73971 0.99921
3265.31132 0.99926
3263.88292 0.99931
3262.45453 0.99933
3261.02613 0.99935
3259.59774 0.99935
3258.16934 0.99935
3256.74095 0.99935
3255.31255 0.99937
3253.88416 0.99939
3252.45576 0.99942
3251.02737 0.99945
3249.59897 0.99948
3248.17058 0.99951
3246.74218 0.99956
3245.31379 0.99961
3243.88539 0.99967
3242.45700 0.99973
3241.02860 0.99978
3239.60020 0.99983
3238.17181 0.99987
3236.74341 0.99991
3235.31502 0.99994
3233.88662 0.99997
3232.45823 0.99999
3231.02983 1.00000
3229.60144 1.00000
3228.17304 0.99999
3226.74465 0.99997
3225.31625 0.99995
3223.88786 0.99992
3222.45946 0.99988
3221.03107 0.99985
3219.60267 0.99982
3218.17428 0.99981
3216.74588 0.99981
3215.31749 0.99982
3213.88909 0.99985
3212.46070 0.99988
3211.03230 0.99991
3209.60391 0.99995
3208.17551 0.99998
3206.74712 1.00000
3205.31872 1.00001
3203.89033 1.00001
3202.46193 1.00001
3201.03354 1.00000
3199.60514 0.99999
3198.17675 0.99998
3196.74835 0.99998
3195.31996 0.99998
3193.89156 0.99999
3192.46316 0.99999
3191.03477 1.00000
3189.60637 1.00000
3188.17798 1.00000
3186.74958 0.99999
3185.32119 0.99997
3183.89279 0.99994
3182.46440 0.99989
3181.03600 0.99983
3179.60761 0.99976
3178.17921 0.99968
3176.75082 0.99961
3175.32242 0.99954
3173.89403 0.99949
3172.46563 0.99943
3171.03724 0.99939
3169.60884 0.99935
3168.18045 0.99932
3166.75205 0.99929
3165.32366 0.99926
3163.89526 0.99923
3162.46687 0.99919
3161.03847 0.99915
3159.61008 0.99910
3158.18168 0.99905
3156.75329 0.99899
3155.32489 0.99894
3153.89650 0.99888
3152.46810 0.99882
3151.03971 0.99878
3149.61131 0.99873
3148.18292 0.99870
3146.75452 0.99867
3145.32612 0.99864
3143.89773 0.99861
3142.46933 0.99859
3141.04094 0.99855
3139.61254 0.99851
3138.18415 0.99847
3136.75575 0.99842
3135.32736 0.99836
3133.89896 0.99829
3132.47057 0.99821
3131.04217 0.99812
3129.61378 0.99802
3128.18538 0.99792
3126.75699 0.99783
3125.32859 0.99775
3123.90020 0.99768
3122.47180 0.99762
3121.04341 0.99756
3119.61501 0.99752
3118.18662 0.99748
3116.75822 0.99746
3115.32983 0.99745
3113.90143 0.99744
3112.47304 0.99743
3111.04464 0.99742
3109.61625 0.99740
3108.18785 0.99737
3106.75946 0.99733
3105.33106 0.99728
3103.90267 0.99722
3102.47427 0.99715
3101.04588 0.99707
3099.61748 0.99697
3098.18908 0.99687
3096.76069 0.99677
3095.33229 0.99668
3093.90390 0.99659
3092.47550 0.99650
3091.04711 0.99643
3089.61871 0.99636
3088.19032 0.99631
3086.76192 0.99626
3085.33353 0.99621
3083.90513 0.99618
3082.47674 0.99614
3081.04834 0.99610
3079.61995 0.99606
3078.19155 0.99601
3076.76316 0.99597
3075.33476 0.99592
3073.90637 0.99587
3072.47797 0.99582
3071.04958 0.99577
3069.62118 0.99573
3068.19279 0.99569
3066.76439 0.99564
3065.33600 0.99561
3063.90760 0.99557
3062.47921 0.99555
3061.05081 0.99552
3059.62242 0.99550
3058.19402 0.99548
3056.76563 0.99546
3055.33723 0.99544
3053.90884 0.99543
3052.48044 0.99541
3051.05204 0.99540
3049.62365 0.99539
3048.19525 0.99538
3046.76686 0.99537
3045.33846 0.99536
3043.91007 0.99534
3042.48167 0.99532
3041.05328 0.99530
3039.62488 0.99528
3038.19649 0.99526
3036.76809 0.99524
3035.33970 0.99521
3033.91130 0.99519
3032.48291 0.99518
3031.05451 0.99516
3029.62612 0.99514
3028.19772 0.99512
3026.76933 0.99509
3025.34093 0.99506
3023.91254 0.99503
3022.48414 0.99500
3021.05575 0.99498
3019.62735 0.99496
3018.19896 0.99495
3016.77056 0.99495
3015.34217 0.99495
3013.91377 0.99496
3012.48538 0.99496
3011.05698 0.99496
3009.62859 0.99496
3008.20019 0.99495
3006.77180 0.99494
3005.34340 0.99492
3003.91500 0.99489
3002.48661 0.99485
3001.05821 0.99482
2999.62982 0.99479
2998.20142 0.99476
2996.77303 0.99474
2995.34463 0.99472
2993.91624 0.99471
2992.48784 0.99469
2991.05945 0.99467
2989.63105 0.99465
2988.20266 0.99463
2986.77426 0.99462
2985.34587 0.99460
2983.91747 0.99459
2982.48908 0.99457
2981.06068 0.99456
2979.63229 0.99454
2978.20389 0.99452
2976.77550 0.99450
2975.34710 0.99448
2973.91871 0.99444
2972.49031 0.99440
2971.06192 0.99436
2969.63352 0.99431
2968.20513 0.99427
2966.77673 0.99424
2965.34834 0.99423
2963.91994 0.99423
2962.49155 0.99424
2961.06315 0.99426
2959.63476 0.99429
2958.20636 0.99433
2956.77796 0.99436
2955.34957 0.99439
2953.92117 0.99441
2952.49278 0.99442
2951.06438 0.99442
2949.63599 0.99442
2948.20759 0.99441
2946.77920 0.99439
2945.35080 0.99438
2943.92241 0.99437
2942.49401 0.99437
2941.06562 0.99439
2939.63722 0.99440
2938.20883 0.99443
2936.78043 0.99446
2935.35204 0.99450
2933.92364 0.99454
2932.49525 0.99458
2931.06685 0.99463
2929.63846 0.99468
2928.21006 0.99473
2926.78167 0.99477
2925.35327 0.99482
2923.92488 0.99485
2922.49648 0.99489
2921.06809 0.99493
2919.63969 0.99496
2918.21130 0.99499
2916.78290 0.99502
2915.35451 0.99505
2913.92611 0.99507
2912.49772 0.99509
2911.06932 0.99510
2909.64092 0.99512
2908.21253 0.99513
2906.78413 0.99515
2905.35574 0.99516
2903.92734 0.99517
2902.49895 0.99517
2901.07055 0.99518
2899.64216 0.99519
2898.21376 0.99521
2896.78537 0.99523
2895.35697 0.99525
2893.92858 0.99528
2892.50018 0.99531
2891.07179 0.99534
2889.64339 0.99537
2888.21500 0.99539
2886.78660 0.99542
2885.35821 0.99544
2883.92981 0.99546
2882.50142 0.99547
2881.07302 0.99549
2879.64463 0.99549
2878.21623 0.99550
2876.78784 0.99551
2875.35944 0.99552
2873.93105 0.99554
2872.50265 0.99556
2871.07426 0.99559
2869.64586 0.99562
2868.21747 0.99565
2866.78907 0.99569
2865.36068 0.99572
2863.93228 0.99575
2862.50388 0.99578
2861.07549 0.99580
2859.64709 0.99583
2858.21870 0.99585
2856.79030 0.99587
2855.36191 0.99589
2853.93351 0.99591
2852.50512 0.99593
2851.07672 0.99596
2849.64833 0.99599
2848.21993 0.99602
2846.79154 0.99606
2845.36314 0.99610
2843.93475 0.99613
2842.50635 0.99617
2841.07796 0.99621
2839.64956 0.99624
2838.22117 0.99627
2836.79277 0.99629
2835.36438 0.99630
2833.93598 0.99631
2832.50759 0.99631
2831.07919 0.99631
2829.65080 0.99631
2828.22240 0.99631
2826.79401 0.99631
2825.36561 0.99632
2823.93722 0.99633
2822.50882 0.99635
2821.08043 0.99636
2819.65203 0.99639
2818.22364 0.99641
2816.79524 0.99643
2815.36684 0.99645
2813.93845 0.99647
2812.51005 0.99649
2811.08166 0.99650
2809.65326 0.99652
2808.22487 0.99653
2806.79647 0.99655
2805.36808 0.99657
2803.93968 0.99658
2802.51129 0.99660
2801.08289 0.99662
2799.65450 0.99664
2798.22610 0.99666
2796.79771 0.99667
2795.36931 0.99669
2793.94092 0.99671
2792.51252 0.99673
2791.08413 0.99675
2789.65573 0.99677
2788.22734 0.99679
2786.79894 0.99681
2785.37055 0.99683
2783.94215 0.99685
2782.51376 0.99687
2781.08536 0.99688
2779.65697 0.99690
2778.22857 0.99691
2776.80018 0.99692
2775.37178 0.99694
2773.94339 0.99695
2772.51499 0.99697
2771.08660 0.99699
2769.65820 0.99702
2768.22980 0.99705
2766.80141 0.99708
2765.37301 0.99711
2763.94462 0.99714
2762.51622 0.99717
2761.08783 0.99719
2759.65943 0.99720
2758.23104 0.99722
2756.80264 0.99722
2755.37425 0.99722
2753.94585 0.99722
2752.51746 0.99722
2751.08906 0.99722
2749.66067 0.99722
2748.23227 0.99722
2746.80388 0.99723
2745.37548 0.99724
2743.94709 0.99726
2742.51869 0.99728
2741.09030 0.99731
2739.66190 0.99734
2738.23351 0.99737
2736.80511 0.99741
2735.37672 0.99743
2733.94832 0.99746
2732.51993 0.99748
2731.09153 0.99749
2729.66314 0.99749
2728.23474 0.99750
2726.80635 0.99749
2725.37795 0.99749
2723.94956 0.99749
2722.52116 0.99749
2721.09276 0.99749
2719.66437 0.99750
2718.23597 0.99751
2716.80758 0.99752
2715.37918 0.99753
2713.95079 0.99753
2712.52239 0.99754
2711.09400 0.99755
2709.66560 0.99756
2708.23721 0.99757
2706.80881 0.99758
2705.38042 0.99759
2703.95202 0.99760
2702.52363 0.99762
2701.09523 0.99763
2699.66684 0.99765
2698.23844 0.99768
2696.81005 0.99770
2695.38165 0.99771
2693.95326 0.99773
2692.52486 0.99775
2691.09647 0.99776
2689.66807 0.99777
2688.23968 0.99778
2686.81128 0.99779
2685.38289 0.99780
2683.95449 0.99780
2682.52610 0.99781
2681.09770 0.99781
2679.66931 0.99782
2678.24091 0.99782
2676.81252 0.99782
2675.38412 0.99783
2673.95572 0.99784
2672.52733 0.99785
2671.09893 0.99786
2669.67054 0.99787
2668.24214 0.99788
2666.81375 0.99789
2665.38535 0.99790
2663.95696 0.99791
2662.52856 0.99793
2661.10017 0.99794
2659.67177 0.99796
2658.24338 0.99797
2656.81498 0.99799
2655.38659 0.99801
2653.95819 0.99802
2652.52980 0.99804
2651.10140 0.99806
2649.67301 0.99808
2648.24461 0.99810
2646.81622 0.99812
2645.38782 0.99813
2643.95943 0.99814
2642.53103 0.99815
2641.10264 0.99815
2639.67424 0.99816
2638.24585 0.99816
2636.81745 0.99816
2635.38906 0.99815
2633.96066 0.99815
2632.53227 0.99815
2631.10387 0.99815
2629.67548 0.99815
2628.24708 0.99816
2626.81868 0.99817
2625.39029 0.99818
2623.96189 0.99819
2622.53350 0.99821
2621.10510 0.99823
2619.67671 0.99826
2618.24831 0.99830
2616.81992 0.99835
2615.39152 0.99839
2613.96313 0.99843
2612.53473 0.99847
2611.10634 0.99850
2609.67794 0.99852
2608.24955 0.99853
2606.82115 0.99852
2605.39276 0.99851
2603.96436 0.99848
2602.53597 0.99844
2601.10757 0.99840
2599.67918 0.99836
2598.25078 0.99833
2596.82239 0.99832
2595.39399 0.99832
2593.96560 0.99833
2592.53720 0.99836
2591.10881 0.99840
2589.68041 0.99845
2588.25202 0.99850
2586.82362 0.99856
2585.39523 0.99861
2583.96683 0.99866
2582.53843 0.99870
2581.11004 0.99873
2579.68164 0.99874
2578.25325 0.99875
2576.82485 0.99874
2575.39646 0.99873
2573.96806 0.99872
2572.53967 0.99870
2571.11127 0.99869
2569.68288 0.99868
2568.25448 0.99867
2566.82609 0.99867
2565.39769 0.99867
2563.96930 0.99868
2562.54090 0.99870
2561.11251 0.99872
2559.68411 0.99874
2558.25572 0.99875
2556.82732 0.99876
2555.39893 0.99877
2553.97053 0.99876
2552.54214 0.99876
2551.11374 0.99874
2549.68535 0.99872
2548.25695 0.99871
2546.82856 0.99869
2545.40016 0.99868
2543.97177 0.99867
2542.54337 0.99867
2541.11498 0.99868
2539.68658 0.99869
2538.25819 0.99872
2536.82979 0.99874
2535.40139 0.99878
2533.97300 0.99882
2532.54460 0.99885
2531.11621 0.99888
2529.68781 0.99891
2528.25942 0.99893
2526.83102 0.99895
2525.40263 0.99896
2523.97423 0.99897
2522.54584 0.99897
2521.11744 0.99897
2519.68905 0.99897
2518.26065 0.99897
2516.83226 0.99897
2515.40386 0.99898
2513.97547 0.99900
2512.54707 0.99902
2511.11868 0.99904
2509.69028 0.99907
2508.26189 0.99909
2506.83349 0.99911
2505.40510 0.99913
2503.97670 0.99915
2502.54831 0.99916
2501.11991 0.99917
2499.69152 0.99916
2498.26312 0.99915
2496.83473 0.99913
2495.40633 0.99912
2493.97794 0.99910
2492.54954 0.99908
2491.12115 0.99907
2489.69275 0.99907
2488.26435 0.99907
2486.83596 0.99907
2485.40756 0.99909
2483.97917 0.99911
2482.55077 0.99913
2481.12238 0.99916
2479.69398 0.99918
2478.26559 0.99920
2476.83719 0.99921
2475.40880 0.99921
2473.98040 0.99922
2472.55201 0.99922
2471.12361 0.99923
2469.69522 0.99923
2468.26682 0.99923
2466.83843 0.99923
2465.41003 0.99924
2463.98164 0.99924
2462.55324 0.99924
2461.12485 0.99925
2459.69645 0.99926
2458.26806 0.99926
2456.83966 0.99926
2455.41127 0.99926
2453.98287 0.99926
2452.55448 0.99925
2451.12608 0.99924
2449.69769 0.99923
2448.26929 0.99922
2446.84090 0.99920
2445.41250 0.99918
2443.98411 0.99917
2442.55571 0.99916
2441.12731 0.99915
2439.69892 0.99916
2438.27052 0.99917
2436.84213 0.99919
2435.41373 0.99921
2433.98534 0.99923
2432.55694 0.99925
2431.12855 0.99926
2429.70015 0.99927
2428.27176 0.99927
2426.84336 0.99927
2425.41497 0.99926
2423.98657 0.99926
2422.55818 0.99926
2421.12978 0.99927
2419.70139 0.99928
2418.27299 0.99931
2416.84460 0.99934
2415.41620 0.99939
2413.98781 0.99944
2412.55941 0.99949
2411.13102 0.99953
2409.70262 0.99957
2408.27423 0.99959
2406.84583 0.99960
2405.41744 0.99960
2403.98904 0.99960
2402.56065 0.99959
2401.13225 0.99957
2399.70386 0.99955
2398.27546 0.99954
2396.84707 0.99952
2395.41867 0.99951
2393.99027 0.99951
2392.56188 0.99951
2391.13348 0.99951
2389.70509 0.99952
2388.27669 0.99952
2386.84830 0.99953
2385.41990 0.99953
2383.99151 0.99954
2382.56311 0.99954
2381.13472 0.99955
2379.70632 0.99955
2378.27793 0.99955
2376.84953 0.99956
2375.42114 0.99956
2373.99274 0.99956
2372.56435 0.99957
2371.13595 0.99957
2369.70756 0.99958
2368.27916 0.99958
2366.85077 0.99958
2365.42237 0.99959
2363.99398 0.99959
2362.56558 0.99959
2361.13719 0.99960
2359.70879 0.99960
2358.28040 0.99960
2356.85200 0.99961
2355.42361 0.99961
2353.99521 0.99961
2352.56682 0.99962
2351.13842 0.99962
2349.71003 0.99962
2348.28163 0.99963
2346.85323 0.99963
2345.42484 0.99963
2343.99644 0.99964
2342.56805 0.99964
2341.13965 0.99964
2339.71126 0.99965
2338.28286 0.99965
2336.85447 0.99965
2335.42607 0.99965
2333.99768 0.99966
2332.56928 0.99966
2331.14089 0.99966
2329.71249 0.99967
2328.28410 0.99967
2326.85570 0.99967
2325.42731 0.99967
2323.99891 0.99968
2322.57052 0.99968
2321.14212 0.99968
2319.71373 0.99968
2318.28533 0.99969
2316.85694 0.99969
2315.42854 0.99969
2314.00015 0.99969
2312.57175 0.99970
2311.14336 0.99970
2309.71496 0.99970
2308.28657 0.99970
2306.85817 0.99971
2305.42978 0.99971
2304.00138 0.99971
2302.57299 0.99971
2301.14459 0.99972
2299.71619 0.99972
2298.28780 0.99972
2296.85940 0.99972
2295.43101 0.99972
2294.00261 0.99973
2292.57422 0.99973
2291.14582 0.99973
2289.71743 0.99973
2288.28903 0.99973
2286.86064 0.99974
2285.43224 0.99974
2284.00385 0.99974
2282.57545 0.99974
2281.14706 0.99974
2279.71866 0.99974
2278.29027 0.99975
2276.86187 0.99975
2275.43348 0.99975
2274.00508 0.99975
2272.57669 0.99975
2271.14829 0.99975
2269.71990 0.99976
2268.29150 0.99976
2266.86311 0.99976
2265.43471 0.99976
2264.00632 0.99976
2262.57792 0.99976
2261.14953 0.99976
2259.72113 0.99977
2258.29274 0.99977
2256.86434 0.99977
2255.43595 0.99977
2254.00755 0.99977
2252.57915 0.99977
2251.15076 0.99977
2249.72236 0.99977
2248.29397 0.99977
2246.86557 0.99978
2245.43718 0.99978
2244.00878 0.99978
2242.58039 0.99978
2241.15199 0.99978
2239.72360 0.99978
2238.29520 0.99978
2236.86681 0.99978
2235.43841 0.99978
2234.01002 0.99978
2232.58162 0.99978
2231.15323 0.99978
2229.72483 0.99979
2228.29644 0.99979
2226.86804 0.99979
2225.43965 0.99979
2224.01125 0.99979
2222.58286 0.99979
2221.15446 0.99979
2219.72607 0.99979
2218.29767 0.99979
2216.86928 0.99979
2215.44088 0.99979
2214.01249 0.99979
2212.58409 0.99979
2211.15570 0.99979
2209.72730 0.99979
2208.29891 0.99979
2206.87051 0.99979
2205.44211 0.99978
2204.01372 0.99978
2202.58532 0.99977
2201.15693 0.99977
2199.72853 0.99978
2198.30014 0.99979
2196.87174 0.99981
2195.44335 0.99984
2194.01495 0.99988
2192.58656 0.99992
2191.15816 0.99996
2189.72977 0.99999
2188.30137 1.00000
2186.87298 0.99998
2185.44458 0.99993
2184.01619 0.99984
2182.58779 0.99972
2181.15940 0.99959
2179.73100 0.99945
2178.30261 0.99931
2176.87421 0.99919
2175.44582 0.99911
2174.01742 0.99907
2172.58903 0.99908
2171.16063 0.99914
2169.73224 0.99925
2168.30384 0.99939
2166.87545 0.99955
2165.44705 0.99970
2164.01866 0.99984
2162.59026 0.99993
2161.16187 0.99999
2159.73347 1.00000
2158.30507 0.99997
2156.87668 0.99991
2155.44828 0.99982
2154.01989 0.99972
2152.59149 0.99963
2151.16310 0.99954
2149.73470 0.99949
2148.30631 0.99947
2146.87791 0.99949
2145.44952 0.99955
2144.02112 0.99963
2142.59273 0.99972
2141.16433 0.99980
2139.73594 0.99987
2138.30754 0.99991
2136.87915 0.99992
2135.45075 0.99991
2134.02236 0.99988
2132.59396 0.99983
2131.16557 0.99977
2129.73717 0.99970
2128.30878 0.99963
2126.88038 0.99956
2125.45199 0.99951
2124.02359 0.99948
2122.59520 0.99946
2121.16680 0.99946
2119.73841 0.99948
2118.31001 0.99950
2116.88162 0.99952
2115.45322 0.99954
2114.02483 0.99957
2112.59643 0.99959
2111.16803 0.99962
2109.73964 0.99963
2108.31124 0.99964
2106.88285 0.99964
2105.45445 0.99963
2104.02606 0.99962
2102.59766 0.99961
2101.16927 0.99960
2099.74087 0.99960
2098.31248 0.99962
2096.88408 0.99964
2095.45569 0.99966
2094.02729 0.99967
2092.59890 0.99967
2091.17050 0.99966
2089.74211 0.99964
2088.31371 0.99961
2086.88532 0.99957
2085.45692 0.99953
2084.02853 0.99949
2082.60013 0.99945
2081.17174 0.99942
2079.74334 0.99940
2078.31495 0.99938
2076.88655 0.99937
2075.45816 0.99937
2074.02976 0.99936
2072.60137 0.99935
2071.17297 0.99933
2069.74458 0.99932
2068.31618 0.99932
2066.88779 0.99933
2065.45939 0.99936
2064.03099 0.99940
2062.60260 0.99944
2061.17420 0.99950
2059.74581 0.99955
2058.31741 0.99960
2056.88902 0.99964
2055.46062 0.99966
2054.03223 0.99965
2052.60383 0.99963
2051.17544 0.99959
2049.74704 0.99954
2048.31865 0.99950
2046.89025 0.99948
2045.46186 0.99947
2044.03346 0.99948
2042.60507 0.99950
2041.17667 0.99954
2039.74828 0.99960
2038.31988 0.99966
2036.89149 0.99970
2035.46309 0.99972
2034.03470 0.99971
2032.60630 0.99967
2031.17791 0.99960
2029.74951 0.99952
2028.32112 0.99944
2026.89272 0.99938
2025.46433 0.99933
2024.03593 0.99930
2022.60754 0.99930
2021.17914 0.99933
2019.75075 0.99938
2018.32235 0.99945
2016.89395 0.99952
2015.46556 0.99957
2014.03716 0.99958
2012.60877 0.99958
2011.18037 0.99955
2009.75198 0.99952
2008.32358 0.99948
2006.89519 0.99946
2005.46679 0.99945
2004.03840 0.99947
2002.61000 0.99950
2001.18161 0.99955
1999.75321 0.99960
1998.32482 0.99966
1996.89642 0.99971
1995.46803 0.99974
1994.03963 0.99974
1992.61124 0.99971
1991.18284 0.99966
1989.75445 0.99959
1988.32605 0.99951
1986.89766 0.99943
1985.46926 0.99935
1984.04087 0.99927
1982.61247 0.99920
1981.18408 0.99915
1979.75568 0.99911
1978.32729 0.99909
1976.89889 0.99908
1975.47050 0.99909
1974.04210 0.99912
1972.61371 0.99916
1971.18531 0.99921
1969.75691 0.99928
1968.32852 0.99935
1966.90012 0.99942
1965.47173 0.99948
1964.04333 0.99952
1962.61494 0.99954
1961.18654 0.99955
1959.75815 0.99955
1958.32975 0.99954
1956.90136 0.99953
1955.47296 0.99954
1954.04457 0.99955
1952.61617 0.99958
1951.18778 0.99963
1949.75938 0.99969
1948.33099 0.99977
1946.90259 0.99985
1945.47420 0.99993
1944.04580 0.99998
1942.61741 1.00000
1941.18901 0.99998
1939.76062 0.99994
1938.33222 0.99989
1936.90383 0.99982
1935.47543 0.99975
1934.04704 0.99968
1932.61864 0.99962
1931.19025 0.99957
1929.76185 0.99954
1928.33346 0.99954
1926.90506 0.99955
1925.47667 0.99957
1924.04827 0.99961
1922.61987 0.99964
1921.19148 0.99967
1919.76308 0.99968
1918.33469 0.99967
1916.90629 0.99966
1915.47790 0.99963
1914.04950 0.99960
1912.62111 0.99956
1911.19271 0.99951
1909.76432 0.99946
1908.33592 0.99942
1906.90753 0.99940
1905.47913 0.99939
1904.05074 0.99939
1902.62234 0.99942
1901.19395 0.99946
1899.76555 0.99950
1898.33716 0.99956
1896.90876 0.99960
1895.48037 0.99964
1894.05197 0.99967
1892.62358 0.99969
1891.19518 0.99969
1889.76679 0.99968
1888.33839 0.99967
1886.91000 0.99967
1885.48160 0.99967
1884.05321 0.99968
1882.62481 0.99970
1881.19642 0.99973
1879.76802 0.99976
1878.33963 0.99980
1876.91123 0.99984
1875.48283 0.99987
1874.05444 0.99988
1872.62604 0.99989
1871.19765 0.99988
1869.76925 0.99987
1868.34086 0.99984
1866.91246 0.99982
1865.48407 0.99979
1864.05567 0.99976
1862.62728 0.99973
1861.19888 0.99971
1859.77049 0.99969
1858.34209 0.99967
1856.91370 0.99966
1855.48530 0.99966
1854.05691 0.99966
1852.62851 0.99966
1851.20012 0.99967
1849.77172 0.99968
1848.34333 0.99970
1846.91493 0.99972
1845.48654 0.99974
1844.05814 0.99976
1842.62975 0.99978
1841.20135 0.99980
1839.77296 0.99981
1838.34456 0.99983
1836.91617 0.99984
1835.48777 0.99984
1834.05938 0.99985
1832.63098 0.99984
1831.20258 0.99984
1829.77419 0.99983
1828.34579 0.99982
1826.91740 0.99981
1825.48900 0.99980
1824.06061 0.99979
1822.63221 0.99978
1821.20382 0.99977
1819.77542 0.99977
1818.34703 0.99977
1816.91863 0.99977
1815.49024 0.99978
1814.06184 0.99979
1812.63345 0.99979
1811.20505 0.99980
1809.77666 0.99981
1808.34826 0.99981
1806.91987 0.99982
1805.49147 0.99982
1804.06308 0.99982
1802.63468 0.99983
1801.20629 0.99983
1799.77789 0.99985
1798.34950 0.99987
1796.92110 0.99989
1795.49271 0.99992
1794.06431 0.99994
1792.63592 0.99995
1791.20752 0.99996
1789.77913 0.99995
1788.35073 0.99993
1786.92234 0.99990
1785.49394 0.99987
1784.06554 0.99984
1782.63715 0.99981
1781.20875 0.99979
1779.78036 0.99978
1778.35196 0.99978
1776.92357 0.99980
1775.49517 0.99983
1774.06678 0.99987
1772.63838 0.99991
1771.20999 0.99995
1769.78159 0.99998
1768.35320 0.99999
1766.92480 1.00000
1765.49641 1.00000
1764.06801 0.99999
1762.63962 0.99998
1761.21122 0.99996
1759.78283 0.99994
1758.35443 0.99993
1756.92604 0.99991
1755.49764 0.99990
1754.06925 0.99990
1752.64085 0.99990
1751.21246 0.99990
1749.78406 0.99991
1748.35567 0.99992
1746.92727 0.99992
1745.49888 0.99993
1744.07048 0.99993
1742.64209 0.99993
1741.21369 0.99993
1739.78530 0.99993
1738.35690 0.99993
1736.92850 0.99993
1735.50011 0.99992
1734.07171 0.99992
1732.64332 0.99992
1731.21492 0.99992
1729.78653 0.99992
1728.35813 0.99993
1726.92974 0.99995
1725.50134 0.99997
1724.07295 0.99999
1722.64455 1.00000
1721.21616 1.00002
1719.78776 1.00002
1718.35937 1.00002
1716.93097 1.00002
1715.50258 1.00001
1714.07418 1.00000
1712.64579 0.99998
1711.21739 0.99997
1709.78900 0.99994
1708.36060 0.99992
1706.93221 0.99990
1705.50381 0.99987
1704.07542 0.99983
1702.64702 0.99979
1701.21863 0.99973
1699.79023 0.99966
1698.36184 0.99958
1696.93344 0.99949
1695.50505 0.99940
1694.07665 0.99930
1692.64826 0.99921
1691.21986 0.99911
1689.79146 0.99901
1688.36307 0.99889
1686.93467 0.99877
1685.50628 0.99863
1684.07788 0.99848
1682.64949 0.99831
1681.22109 0.99812
1679.79270 0.99791
1678.36430 0.99768
1676.93591 0.99745
1675.50751 0.99720
1674.07912 0.99694
1672.65072 0.99668
1671.22233 0.99642
1669.79393 0.99613
1668.36554 0.99583
1666.93714 0.99552
1665.50875 0.99518
1664.08035 0.99484
1662.65196 0.99449
1661.22356 0.99414
1659.79517 0.99380
1658.36677 0.99348
1656.93838 0.99319
1655.50998 0.99294
1654.08159 0.99274
1652.65319 0.99258
1651.22480 0.99247
1649.79640 0.99241
1648.36801 0.99238
1646.93961 0.99240
1645.51122 0.99244
1644.08282 0.99250
1642.65442 0.99258
1641.22603 0.99268
1639.79763 0.99279
1638.36924 0.99291
1636.94084 0.99303
1635.51245 0.99316
1634.08405 0.99328
1632.65566 0.99341
1631.22726 0.99355
1629.79887 0.99369
1628.37047 0.99383
1626.94208 0.99398
1625.51368 0.99413
1624.08529 0.99427
1622.65689 0.99440
1621.22850 0.99452
1619.80010 0.99462
1618.37171 0.99472
1616.94331 0.99480
1615.51492 0.99485
1614.08652 0.99489
1612.65813 0.99491
1611.22973 0.99492
1609.80134 0.99490
1608.37294 0.99487
1606.94455 0.99483
1605.51615 0.99477
1604.08776 0.99469
1602.65936 0.99459
1601.23097 0.99446
1599.80257 0.99430
1598.37418 0.99411
1596.94578 0.99389
1595.51738 0.99364
1594.08899 0.99337
1592.66059 0.99307
1591.23220 0.99275
1589.80380 0.99242
1588.37541 0.99209
1586.94701 0.99175
1585.51862 0.99143
1584.09022 0.99112
1582.66183 0.99082
1581.23343 0.99055
1579.80504 0.99029
1578.37664 0.99004
1576.94825 0.98981
1575.51985 0.98960
1574.09146 0.98941
1572.66306 0.98924
1571.23467 0.98909
1569.80627 0.98898
1568.37788 0.98889
1566.94948 0.98882
1565.52109 0.98878
1564.09269 0.98877
1562.66430 0.98878
1561.23590 0.98881
1559.80751 0.98886
1558.37911 0.98892
1556.95072 0.98898
1555.52232 0.98906
1554.09393 0.98917
1552.66553 0.98930
1551.23714 0.98946
1549.80874 0.98965
1548.38034 0.98988
1546.95195 0.99015
1545.52355 0.99044
1544.09516 0.99076
1542.66676 0.99111
1541.23837 0.99146
1539.80997 0.99182
1538.38158 0.99218
1536.95318 0.99252
1535.52479 0.99286
1534.09639 0.99319
1532.66800 0.99351
1531.23960 0.99383
1529.81121 0.99413
1528.38281 0.99442
1526.95442 0.99469
1525.52602 0.99495
1524.09763 0.99520
1522.66923 0.99543
1521.24084 0.99564
1519.81244 0.99584
1518.38405 0.99603
1516.95565 0.99620
1515.52726 0.99636
1514.09886 0.99652
1512.67047 0.99667
1511.24207 0.99682
1509.81368 0.99696
1508.38528 0.99709
1506.95689 0.99722
1505.52849 0.99733
1504.10010 0.99744
1502.67170 0.99754
1501.24330 0.99764
1499.81491 0.99774
1498.38651 0.99783
1496.95812 0.99793
1495.52972 0.99802
1494.10133 0.99810
1492.67293 0.99818
1491.24454 0.99826
1489.81614 0.99833
1488.38775 0.99839
1486.95935 0.99844
1485.53096 0.99849
1484.10256 0.99852
1482.67417 0.99855
1481.24577 0.99857
1479.81738 0.99858
1478.38898 0.99859
1476.96059 0.99860
1475.53219 0.99859
1474.10380 0.99858
1472.67540 0.99856
1471.24701 0.99854
1469.81861 0.99851
1468.39022 0.99848
1466.96182 0.99844
1465.53343 0.99841
1464.10503 0.99837
1462.67664 0.99834
1461.24824 0.99830
1459.81985 0.99826
1458.39145 0.99823
1456.96306 0.99819
1455.53466 0.99814
1454.10626 0.99808
1452.67787 0.99801
1451.24947 0.99794
1449.82108 0.99787
1448.39268 0.99779
1446.96429 0.99772
1445.53589 0.99766
1444.10750 0.99761
1442.67910 0.99757
1441.25071 0.99753
1439.82231 0.99751
1438.39392 0.99749
1436.96552 0.99748
1435.53713 0.99747
1434.10873 0.99745
1432.68034 0.99743
1431.25194 0.99739
1429.82355 0.99733
1428.39515 0.99726
1426.96676 0.99717
1425.53836 0.99707
1424.10997 0.99695
1422.68157 0.99682
1421.25318 0.99668
1419.82478 0.99652
1418.39639 0.99635
1416.96799 0.99617
1415.53960 0.99598
1414.11120 0.99578
1412.68281 0.99557
1411.25441 0.99537
1409.82602 0.99516
1408.39762 0.99495
1406.96922 0.99474
1405.54083 0.99453
1404.11243 0.99433
1402.68404 0.99415
1401.25564 0.99397
1399.82725 0.99382
1398.39885 0.99368
1396.97046 0.99356
1395.54206 0.99347
1394.11367 0.99340
1392.68527 0.99335
1391.25688 0.99334
1389.82848 0.99336
1388.40009 0.99341
1386.97169 0.99350
1385.54330 0.99361
1384.11490 0.99375
1382.68651 0.99392
1381.25811 0.99411
1379.82972 0.99431
1378.40132 0.99453
1376.97293 0.99476
1375.54453 0.99500
1374.11614 0.99524
1372.68774 0.99548
1371.25935 0.99572
1369.83095 0.99595
1368.40256 0.99616
1366.97416 0.99637
1365.54577 0.99657
1364.11737 0.99675
1362.68898 0.99691
1361.26058 0.99706
1359.83218 0.99719
1358.40379 0.99730
1356.97539 0.99740
1355.54700 0.99749
1354.11860 0.99756
1352.69021 0.99763
1351.26181 0.99770
1349.83342 0.99776
1348.40502 0.99782
1346.97663 0.99787
1345.54823 0.99793
1344.11984 0.99798
1342.69144 0.99804
1341.26305 0.99809
1339.83465 0.99814
1338.40626 0.99818
1336.97786 0.99822
1335.54947 0.99826
1334.12107 0.99829
1332.69268 0.99832
1331.26428 0.99835
1329.83589 0.99837
1328.40749 0.99840
1326.97910 0.99842
1325.55070 0.99844
1324.12231 0.99846
1322.69391 0.99848
1321.26552 0.99850
1319.83712 0.99851
1318.40873 0.99852
1316.98033 0.99852
1315.55194 0.99851
1314.12354 0.99849
1312.69514 0.99846
1311.26675 0.99842
1309.83835 0.99837
1308.40996 0.99831
1306.98156 0.99825
1305.55317 0.99819
1304.12477 0.99813
1302.69638 0.99807
1301.26798 0.99801
1299.83959 0.99796
1298.41119 0.99791
1296.98280 0.99787
1295.55440 0.99783
1294.12601 0.99780
1292.69761 0.99776
1291.26922 0.99772
1289.84082 0.99768
1288.41243 0.99764
1286.98403 0.99760
1285.55564 0.99756
1284.12724 0.99753
1282.69885 0.99751
1281.27045 0.99750
1279.84206 0.99750
1278.41366 0.99750
1276.98527 0.99750
1275.55687 0.99749
1274.12848 0.99747
1272.70008 0.99744
1271.27169 0.99740
1269.84329 0.99735
1268.41490 0.99729
1266.98650 0.99722
1265.55810 0.99716
1264.12971 0.99711
1262.70131 0.99708
1261.27292 0.99708
1259.84452 0.99711
1258.41613 0.99716
1256.98773 0.99723
1255.55934 0.99732
1254.13094 0.99741
1252.70255 0.99750
1251.27415 0.99758
1249.84576 0.99767
1248.41736 0.99775
1246.98897 0.99782
1245.56057 0.99788
1244.13218 0.99794
1242.70378 0.99799
1241.27539 0.99805
1239.84699 0.99810
1238.41860 0.99816
1236.99020 0.99823
1235.56181 0.99829
1234.13341 0.99834
1232.70502 0.99839
1231.27662 0.99843
1229.84823 0.99847
1228.41983 0.99851
1226.99144 0.99853
1225.56304 0.99856
1224.13465 0.99857
1222.70625 0.99859
1221.27786 0.99860
1219.84946 0.99861
1218.42106 0.99861
1216.99267 0.99862
1215.56427 0.99863
1214.13588 0.99864
1212.70748 0.99864
1211.27909 0.99865
1209.85069 0.99865
1208.42230 0.99866
1206.99390 0.99866
1205.56551 0.99867
1204.13711 0.99867
1202.70872 0.99868
1201.28032 0.99868
1199.85193 0.99868
1198.42353 0.99869
1196.99514 0.99870
1195.56674 0.99871
1194.13835 0.99873
1192.70995 0.99874
1191.28156 0.99876
1189.85316 0.99877
1188.42477 0.99878
1186.99637 0.99880
1185.56798 0.99881
1184.13958 0.99882
1182.71119 0.99882
1181.28279 0.99882
1179.85440 0.99882
1178.42600 0.99881
1176.99761 0.99880
1175.56921 0.99878
1174.14082 0.99877
1172.71242 0.99876
1171.28402 0.99874
1169.85563 0.99872
1168.42723 0.99870
1166.99884 0.99867
1165.57044 0.99865
1164.14205 0.99864
1162.71365 0.99862
1161.28526 0.99861
1159.85686 0.99860
1158.42847 0.99859
1157.00007 0.99859
1155.57168 0.99858
1154.14328 0.99858
1152.71489 0.99858
1151.28649 0.99858
1149.85810 0.99857
1148.42970 0.99856
1147.00131 0.99854
1145.57291 0.99852
1144.14452 0.99849
1142.71612 0.99845
1141.28773 0.99842
1139.85933 0.99838
1138.43094 0.99834
1137.00254 0.99831
1135.57415 0.99828
1134.14575 0.99826
1132.71736 0.99823
1131.28896 0.99821
1129.86057 0.99819
1128.43217 0.99817
1127.00378 0.99814
1125.57538 0.99811
1124.14698 0.99806
1122.71859 0.99802
1121.29019 0.99796
1119.86180 0.99791
1118.43340 0.99785
1117.00501 0.99779
1115.57661 0.99772
1114.14822 0.99766
1112.71982 0.99760
1111.29143 0.99754
1109.86303 0.99748
1108.43464 0.99742
1107.00624 0.99736
1105.57785 0.99730
1104.14945 0.99725
1102.72106 0.99719
1101.29266 0.99714
1099.86427 0.99710
1098.43587 0.99707
1097.00748 0.99704
1095.57908 0.99703
1094.15069 0.99702
1092.72229 0.99702
1091.29390 0.99704
1089.86550 0.99707
1088.43711 0.99711
1087.00871 0.99716
1085.58032 0.99722
1084.15192 0.99727
1082.72353 0.99732
1081.29513 0.99736
1079.86673 0.99739
1078.43834 0.99741
1077.00994 0.99743
1075.58155 0.99743
1074.15315 0.99743
1072.72476 0.99742
1071.29636 0.99741
1069.86797 0.99740
1068.43957 0.99740
1067.01118 0.99742
1065.58278 0.99744
1064.15439 0.99747
1062.72599 0.99750
1061.29760 0.99753
1059.86920 0.99756
1058.44081 0.99758
1057.01241 0.99758
1055.58402 0.99758
1054.15562 0.99755
1052.72723 0.99751
1051.29883 0.99747
1049.87044 0.99741
1048.44204 0.99737
1047.01365 0.99733
1045.58525 0.99731
1044.15686 0.99730
1042.72846 0.99730
1041.30007 0.99733
1039.87167 0.99736
1038.44328 0.99740
1037.01488 0.99745
1035.58649 0.99750
1034.15809 0.99754
1032.72969 0.99758
1031.30130 0.99760
1029.87290 0.99762
1028.44451 0.99763
1027.01611 0.99763
1025.58772 0.99764
1024.15932 0.99764
1022.73093 0.99764
1021.30253 0.99764
1019.87414 0.99765
1018.44574 0.99766
1017.01735 0.99768
1015.58895 0.99771
1014.16056 0.99775
1012.73216 0.99779
1011.30377 0.99783
1009.87537 0.99788
1008.44698 0.99793
1007.01858 0.99798
1005.59019 0.99804
1004.16179 0.99810
1002.73340 0.99816
1001.30500 0.99822
999.87661 0.99827
998.44821 0.99832
997.01982 0.99836
995.59142 0.99839
994.16303 0.99842
992.73463 0.99843
991.30624 0.99844
989.87784 0.99843
988.44945 0.99842
987.02105 0.99840
985.59265 0.99838
984.16426 0.99837
982.73586 0.99835
981.30747 0.99834
979.87907 0.99833
978.45068 0.99832
977.02228 0.99830
975.59389 0.99828
974.16549 0.99827
972.73710 0.99826
971.30870 0.99826
969.88031 0.99826
968.45191 0.99826
967.02352 0.99827
965.59512 0.99828
964.16673 0.99830
962.73833 0.99832
961.30994 0.99833
959.88154 0.99835
958.45315 0.99837
957.02475 0.99837
955.59636 0.99837
954.16796 0.99837
952.73957 0.99836
951.31117 0.99836
949.88278 0.99835
948.45438 0.99833
947.02599 0.99832
945.59759 0.99830
944.16920 0.99828
942.74080 0.99827
941.31241 0.99825
939.88401 0.99824
938.45561 0.99823
937.02722 0.99822
935.59882 0.99822
934.17043 0.99823
932.74203 0.99825
931.31364 0.99827
929.88524 0.99829
928.45685 0.99830
927.02845 0.99832
925.60006 0.99834
924.17166 0.99835
922.74327 0.99835
921.31487 0.99835
919.88648 0.99835
918.45808 0.99833
917.02969 0.99832
915.60129 0.99829
914.17290 0.99827
912.74450 0.99825
911.31611 0.99824
909.88771 0.99822
908.45932 0.99820
907.03092 0.99819
905.60253 0.99818
904.17413 0.99818
902.74574 0.99819
901.31734 0.99821
899.88895 0.99824
898.46055 0.99827
897.03216 0.99830
895.60376 0.99833
894.17537 0.99836
892.74697 0.99839
891.31857 0.99841
889.89018 0.99842
888.46178 0.99843
887.03339 0.99844
885.60499 0.99846
884.17660 0.99848
882.74820 0.99851
881.31981 0.99856
879.89141 0.99862
878.46302 0.99869
877.03462 0.99876
875.60623 0.99881
874.17783 0.99886
872.74944 0.99888
871.32104 0.99887
869.89265 0.99885
868.46425 0.99882
867.03586 0.99878
865.60746 0.99874
864.17907 0.99871
862.75067 0.99870
861.32228 0.99870
859.89388 0.99872
858.46549 0.99876
857.03709 0.99881
855.60870 0.99887
854.18030 0.99892
852.75191 0.99895
851.32351 0.99897
849.89512 0.99896
848.46672 0.99893
847.03833 0.99888
845.60993 0.99883
844.18153 0.99877
842.75314 0.99872
841.32474 0.99868
839.89635 0.99865
838.46795 0.99863
837.03956 0.99863
835.61116 0.99864
834.18277 0.99867
832.75437 0.99870
831.32598 0.99873
829.89758 0.99876
828.46919 0.99878
827.04079 0.99878
825.61240 0.99877
824.18400 0.99874
822.75561 0.99870
821.32721 0.99865
819.89882 0.99859
818.47042 0.99853
817.04203 0.99848
815.61363 0.99842
814.18524 0.99838
812.75684 0.99834
811.32845 0.99832
809.90005 0.99832
808.47166 0.99832
807.04326 0.99833
805.61487 0.99834
804.18647 0.99836
802.75808 0.99837
801.32968 0.99839
799.90129 0.99842
798.47289 0.99844
797.04449 0.99847
795.61610 0.99850
794.18770 0.99853
792.75931 0.99857
791.33091 0.99863
789.90252 0.99869
788.47412 0.99876
787.04573 0.99883
785.61733 0.99890
784.18894 0.99897
782.76054 0.99903
781.33215 0.99910
779.90375 0.99916
778.47536 0.99922
777.04696 0.99927
775.61857 0.99931
774.19017 0.99935
772.76178 0.99937
771.33338 0.99938
769.90499 0.99938
768.47659 0.99938
767.04820 0.99936
765.61980 0.99934
764.19141 0.99931
762.76301 0.99928
761.33462 0.99927
759.90622 0.99927
758.47783 0.99930
757.04943 0.99935
755.62104 0.99941
754.19264 0.99948
752.76425 0.99955
751.33585 0.99962
749.90745 0.99967
748.47906 0.99972
747.05066 0.99974
745.62227 0.99975
744.19387 0.99976
742.76548 0.99976
741.33708 0.99977
739.90869 0.99979
738.48029 0.99982
737.05190 0.99986
735.62350 0.99990
734.19511 0.99994
732.76671 0.99997
731.33832 0.99999
729.90992 1.00000
728.48153 1.00000
727.05313 0.99998
725.62474 0.99995
724.19634 0.99991
722.76795 0.99988
721.33955 0.99986
719.91116 0.99986
718.48276 0.99986
717.05437 0.99988
715.62597 0.99989
714.19758 0.99991
712.76918 0.99991
711.34079 0.99990
709.91239 0.99988
708.48400 0.99985
707.05560 0.99980
705.62721 0.99975
704.19881 0.99968
702.77041 0.99961
701.34202 0.99954
699.91362 0.99948
698.48523 0.99944
697.05683 0.99941
695.62844 0.99938
694.20004 0.99936
692.77165 0.99935
691.34325 0.99934
689.91486 0.99934
688.48646 0.99935
687.05807 0.99936
685.62967 0.99935
684.20128 0.99932
682.77288 0.99927
681.34449 0.99919
679.91609 0.99908
678.48770 0.99895
677.05930 0.99881
675.63091 0.99864
674.20251 0.99847
672.77412 0.99831
671.34572 0.99818
669.91733 0.99809
668.48893 0.99806
667.06054 0.99810
665.63214 0.99819
664.20375 0.99831
662.77535 0.99845
661.34696 0.99860
659.91856 0.99874
658.49017 0.99887
657.06177 0.99899
655.63337 0.99906
654.20498 0.99910
652.77658 0.99909
651.34819 0.99906
649.91979 0.99900
648.49140 0.99893
647.06300 0.99887
645.63461 0.99882
644.20621 0.99879
642.77782 0.99879
641.34942 0.99881
639.92103 0.99885
638.49263 0.99892
637.06424 0.99901
635.63584 0.99909
634.20745 0.99917
632.77905 0.99924
631.35066 0.99928
629.92226 0.99929
628.49387 0.99927
627.06547 0.99923
625.63708 0.99917
624.20868 0.99911
622.78029 0.99906
621.35189 0.99902
619.92350 0.99901
618.49510 0.99903
617.06671 0.99906
615.63831 0.99910
614.20992 0.99915
612.78152 0.99920
611.35313 0.99925
609.92473 0.99927
608.49633 0.99928
607.06794 0.99931
605.63954 0.99932
604.21115 0.99932
602.78275 0.99930
601.35436 0.99926
599.92596 0.99921
598.49757 0.99917
597.06917 0.99911
595.64078 0.99905
594.21238 0.99899
592.78399 0.99894
591.35559 0.99891
589.92720 0.99888
588.49880 0.99886
587.07041 0.99886
585.64201 0.99890
584.21362 0.99896
582.78522 0.99905
581.35683 0.99915
579.92843 0.99925
578.50004 0.99935
577.07164 0.99944
575.64325 0.99953
574.21485 0.99962
572.78646 0.99972
571.35806 0.99982
569.92967 0.99991
568.50127 0.99997
567.07288 1.00000
565.64448 1.00000
564.21609 1.00000
562.78769 0.99998
561.35929 0.99993
559.93090 0.99985
558.50250 0.99973
557.07411 0.99957
555.64571 0.99940
554.21732 0.99925
552.78892 0.99911
551.36053 0.99900
549.93213 0.99891
548.50374 0.99882
547.07534 0.99872
545.64695 0.99861
544.21855 0.99850
542.79016 0.99839
541.36176 0.99831
539.93337 0.99825
538.50497 0.99820
537.07658 0.99816
535.64818 0.99813
534.21979 0.99813
532.79139 0.99817
531.36300 0.99827
529.93460 0.99839
528.50621 0.99851
527.07781 0.99860
525.64942 0.99862
524.22102 0.99861
522.79263 0.99858
521.36423 0.99853
519.93584 0.99850
518.50744 0.99847
517.07905 0.99848
515.65065 0.99851
514.22225 0.99853
512.79386 0.99852
511.36546 0.99848
509.93707 0.99838
508.50867 0.99824
507.08028 0.99802
505.65188 0.99773
504.22349 0.99738
502.79509 0.99702
501.36670 0.99671
499.93830 0.99651
498.50991 0.99643
497.08151 0.99651
495.65312 0.99678
494.22472 0.99720
492.79633 0.99771
491.36793 0.99823
489.93954 0.99869
488.51114 0.99907
487.08275 0.99934
485.65435 0.99948
484.22596 0.99951
482.79756 0.99941
481.36917 0.99922
479.94077 0.99900
478.51238 0.99876
477.08398 0.99852
475.65559 0.99830
474.22719 0.99815
472.79880 0.99806
471.37040 0.99802
469.94201 0.99798
468.51361 0.99792
467.08521 0.99784
465.65682 0.99772
464.22842 0.99756
462.80003 0.99735
461.37163 0.99713
459.94324 0.99691
458.51484 0.99672
457.08645 0.99655
455.65805 0.99640
454.22966 0.99626
452.80126 0.99617
451.37287 0.99616
449.94447 0.99621
448.51608 0.99630
447.08768 0.99640
445.65929 0.99650
444.23089 0.99659
442.80250 0.99668
441.37410 0.99677
439.94571 0.99686
438.51731 0.99694
437.08892 0.99703
435.66052 0.99715
434.23213 0.99733
432.80373 0.99757
431.37534 0.99785
429.94694 0.99812
428.51855 0.99832
427.09015 0.99843
425.66176 0.99843
424.23336 0.99837
422.80497 0.99830
421.37657 0.99826
419.94817 0.99826
418.51978 0.99828
417.09138 0.99832
415.66299 0.99841
414.23459 0.99855
412.80620 0.99879
411.37780 0.99910
409.94941 0.99922
408.52101 0.99933
407.09262 0.99944
405.66422 0.99955
404.23583 0.99966
402.80743 0.99978
401.37904 0.99989
399.95064 1.00000
