3998.07803 0.99994
3996.64964 0.99994
3995.22124 0.99994
3993.79285 0.99994
3992.36445 0.99994
3990.93605 0.99994
3989.50766 0.99995
3988.07926 0.99996
3986.65087 0.99997
3985.22247 0.99998
3983.79408 1.00000
3982.36568 1.00000
3980.93729 1.00000
3979.50889 0.99998
3978.08050 0.99996
3976.65210 0.99995
3975.22371 0.99995
3973.79531 0.99997
3972.36692 0.99998
3970.93852 0.99999
3969.51013 0.99998
3968.08173 0.99996
3966.65334 0.99995
3965.22494 0.99995
3963.79655 0.99995
3962.36815 0.99996
3960.93976 0.99995
3959.51136 0.99993
3958.08297 0.99989
3956.65457 0.99983
3955.22618 0.99977
3953.79778 0.99970
3952.36939 0.99963
3950.94099 0.99956
3949.51260 0.99950
3948.08420 0.99946
3946.65581 0.99945
3945.22741 0.99947
3943.79901 0.99952
3942.37062 0.99959
3940.94222 0.99964
3939.51383 0.99967
3938.08543 0.99967
3936.65704 0.99963
3935.22864 0.99957
3933.80025 0.99948
3932.37185 0.99938
3930.94346 0.99928
3929.51506 0.99919
3928.08667 0.99912
3926.65827 0.99908
3925.22988 0.99907
3923.80148 0.99910
3922.37309 0.99916
3920.94469 0.99924
3919.51630 0.99936
3918.08790 0.99949
3916.65951 0.99960
3915.23111 0.99968
3913.80272 0.99970
3912.37432 0.99964
3910.94593 0.99950
3909.51753 0.99930
3908.08914 0.99909
3906.66074 0.99888
3905.23235 0.99869
3903.80395 0.99853
3902.37556 0.99841
3900.94716 0.99833
3899.51877 0.99831
3898.09037 0.99836
3896.66197 0.99847
3895.23358 0.99862
3893.80518 0.99875
3892.37679 0.99884
3890.94839 0.99886
3889.52000 0.99884
3888.09160 0.99879
3886.66321 0.99876
3885.23481 0.99875
3883.80642 0.99877
3882.37802 0.99879
3880.94963 0.99877
3879.52123 0.99873
3878.09284 0.99866
3876.66444 0.99856
3875.23605 0.99845
3873.80765 0.99833
3872.37926 0.99819
3870.95086 0.99805
3869.52247 0.99795
3868.09407 0.99792
3866.66568 0.99796
3865.23728 0.99803
3863.80889 0.99808
3862.38049 0.99808
3860.95210 0.99800
3859.52370 0.99787
3858.09531 0.99775
3856.66691 0.99767
3855.23852 0.99765
3853.81012 0.99767
3852.38173 0.99772
3850.95333 0.99775
3849.52493 0.99777
3848.09654 0.99777
3846.66814 0.99777
3845.23975 0.99774
3843.81135 0.99768
3842.38296 0.99756
3840.95456 0.99740
3839.52617 0.99723
3838.09777 0.99711
3836.66938 0.99709
3835.24098 0.99719
3833.81259 0.99740
3832.38419 0.99765
3830.95580 0.99789
3829.52740 0.99805
3828.09901 0.99809
3826.67061 0.99802
3825.24222 0.99787
3823.81382 0.99769
3822.38543 0.99755
3820.95703 0.99747
3819.52864 0.99749
3818.10024 0.99759
3816.67185 0.99777
3815.24345 0.99800
3813.81506 0.99824
3812.38666 0.99845
3810.95827 0.99857
3809.52987 0.99857
3808.10148 0.99845
3806.67308 0.99824
3805.24469 0.99799
3803.81629 0.99777
3802.38789 0.99763
3800.95950 0.99761
3799.53110 0.99771
3798.10271 0.99792
3796.67431 0.99819
3795.24592 0.99849
3793.81752 0.99879
3792.38913 0.99905
3790.96073 0.99922
3789.53234 0.99931
3788.10394 0.99930
3786.67555 0.99923
3785.24715 0.99912
3783.81876 0.99902
3782.39036 0.99894
3780.96197 0.99890
3779.53357 0.99888
3778.10518 0.99885
3776.67678 0.99881
3775.24839 0.99876
3773.81999 0.99871
3772.39160 0.99867
3770.96320 0.99862
3769.53481 0.99857
3768.10641 0.99850
3766.67802 0.99842
3765.24962 0.99835
3763.82123 0.99827
3762.39283 0.99818
3760.96444 0.99805
3759.53604 0.99785
3758.10765 0.99756
3756.67925 0.99720
3755.25085 0.99679
3753.82246 0.99640
3752.39406 0.99607
3750.96567 0.99585
3749.53727 0.99575
3748.10888 0.99575
3746.68048 0.99581
3745.25209 0.99591
3743.82369 0.99601
3742.39530 0.99611
3740.96690 0.99620
3739.53851 0.99630
3738.11011 0.99641
3736.68172 0.99652
3735.25332 0.99662
3733.82493 0.99671
3732.39653 0.99678
3730.96814 0.99686
3729.53974 0.99697
3728.11135 0.99712
3726.68295 0.99732
3725.25456 0.99752
3723.82616 0.99769
3722.39777 0.99776
3720.96937 0.99773
3719.54098 0.99763
3718.11258 0.99751
3716.68419 0.99742
3715.25579 0.99739
3713.82740 0.99740
3712.39900 0.99743
3710.97061 0.99745
3709.54221 0.99747
3708.11381 0.99750
3706.68542 0.99759
3705.25702 0.99776
3703.82863 0.99799
3702.40023 0.99823
3700.97184 0.99839
3699.54344 0.99844
3698.11505 0.99835
3696.68665 0.99818
3695.25826 0.99799
3693.82986 0.99784
3692.40147 0.99777
3690.97307 0.99777
3689.54468 0.99779
3688.11628 0.99780
3686.68789 0.99779
3685.25949 0.99773
3683.83110 0.99764
3682.40270 0.99750
3680.97431 0.99730
3679.54591 0.99706
3678.11752 0.99679
3676.68912 0.99653
3675.26073 0.99633
3673.83233 0.99626
3672.40394 0.99636
3670.97554 0.99660
3669.54715 0.99697
3668.11875 0.99738
3666.69036 0.99779
3665.26196 0.99815
3663.83357 0.99844
3662.40517 0.99860
3660.97677 0.99861
3659.54838 0.99846
3658.11998 0.99816
3656.69159 0.99776
3655.26319 0.99732
3653.83480 0.99692
3652.40640 0.99663
3650.97801 0.99645
3649.54961 0.99638
3648.12122 0.99641
3646.69282 0.99652
3645.26443 0.99669
3643.83603 0.99692
3642.40764 0.99718
3640.97924 0.99741
3639.55085 0.99757
3638.12245 0.99762
3636.69406 0.99757
3635.26566 0.99743
3633.83727 0.99726
3632.40887 0.99710
3630.98048 0.99698
3629.55208 0.99689
3628.12369 0.99679
3626.69529 0.99669
3625.26690 0.99658
3623.83850 0.99648
3622.41011 0.99639
3620.98171 0.99630
3619.55332 0.99620
3618.12492 0.99609
3616.69653 0.99598
3615.26813 0.99591
3613.83973 0.99588
3612.41134 0.99593
3610.98294 0.99603
3609.55455 0.99616
3608.12615 0.99627
3606.69776 0.99634
3605.26936 0.99637
3603.84097 0.99637
3602.41257 0.99636
3600.98418 0.99636
3599.55578 0.99636
3598.12739 0.99635
3596.69899 0.99631
3595.27060 0.99626
3593.84220 0.99620
3592.41381 0.99616
3590.98541 0.99616
3589.55702 0.99619
3588.12862 0.99623
3586.70023 0.99626
3585.27183 0.99629
3583.84344 0.99632
3582.41504 0.99637
3580.98665 0.99644
3579.55825 0.99651
3578.12986 0.99655
3576.70146 0.99654
3575.27307 0.99645
3573.84467 0.99629
3572.41628 0.99609
3570.98788 0.99588
3569.55949 0.99570
3568.13109 0.99557
3566.70269 0.99549
3565.27430 0.99546
3563.84590 0.99549
3562.41751 0.99557
3560.98911 0.99570
3559.56072 0.99585
3558.13232 0.99599
3556.70393 0.99609
3555.27553 0.99612
3553.84714 0.99609
3552.41874 0.99601
3550.99035 0.99591
3549.56195 0.99582
3548.13356 0.99575
3546.70516 0.99571
3545.27677 0.99570
3543.84837 0.99573
3542.41998 0.99578
3540.99158 0.99584
3539.56319 0.99590
3538.13479 0.99592
3536.70640 0.99591
3535.27800 0.99585
3533.84961 0.99574
3532.42121 0.99561
3530.99282 0.99547
3529.56442 0.99535
3528.13603 0.99527
3526.70763 0.99522
3525.27924 0.99522
3523.85084 0.99525
3522.42245 0.99530
3520.99405 0.99536
3519.56565 0.99543
3518.13726 0.99550
3516.70886 0.99554
3515.28047 0.99554
3513.85207 0.99549
3512.42368 0.99541
3510.99528 0.99531
3509.56689 0.99520
3508.13849 0.99512
3506.71010 0.99506
3505.28170 0.99504
3503.85331 0.99503
3502.42491 0.99505
3500.99652 0.99508
3499.56812 0.99513
3498.13973 0.99518
3496.71133 0.99523
3495.28294 0.99527
3493.85454 0.99529
3492.42615 0.99529
3490.99775 0.99528
3489.56936 0.99525
3488.14096 0.99522
3486.71257 0.99519
3485.28417 0.99517
3483.85578 0.99517
3482.42738 0.99518
3480.99899 0.99520
3479.57059 0.99522
3478.14220 0.99525
3476.71380 0.99527
3475.28541 0.99527
3473.85701 0.99526
3472.42861 0.99523
3471.00022 0.99519
3469.57182 0.99513
3468.14343 0.99506
3466.71503 0.99499
3465.28664 0.99493
3463.85824 0.99490
3462.42985 0.99489
3461.00145 0.99491
3459.57306 0.99495
3458.14466 0.99500
3456.71627 0.99505
3455.28787 0.99509
3453.85948 0.99511
3452.43108 0.99513
3451.00269 0.99515
3449.57429 0.99516
3448.14590 0.99518
3446.71750 0.99520
3445.28911 0.99523
3443.86071 0.99527
3442.43232 0.99531
3441.00392 0.99536
3439.57553 0.99539
3438.14713 0.99541
3436.71874 0.99542
3435.29034 0.99541
3433.86195 0.99539
3432.43355 0.99536
3431.00516 0.99534
3429.57676 0.99533
3428.14837 0.99534
3426.71997 0.99536
3425.29157 0.99539
3423.86318 0.99543
3422.43478 0.99548
3421.00639 0.99551
3419.57799 0.99555
3418.14960 0.99557
3416.72120 0.99560
3415.29281 0.99564
3413.86441 0.99569
3412.43602 0.99575
3411.00762 0.99581
3409.57923 0.99587
3408.15083 0.99593
3406.72244 0.99597
3405.29404 0.99598
3403.86565 0.99598
3402.43725 0.99595
3401.00886 0.99591
3399.58046 0.99587
3398.15207 0.99583
3396.72367 0.99581
3395.29528 0.99581
3393.86688 0.99584
3392.43849 0.99590
3391.01009 0.99600
3389.58170 0.99612
3388.15330 0.99626
3386.72491 0.99640
3385.29651 0.99655
3383.86812 0.99668
3382.43972 0.99679
3381.01133 0.99686
3379.58293 0.99690
3378.15453 0.99691
3376.72614 0.99689
3375.29774 0.99685
3373.86935 0.99679
3372.44095 0.99673
3371.01256 0.99666
3369.58416 0.99659
3368.15577 0.99655
3366.72737 0.99653
3365.29898 0.99653
3363.87058 0.99657
3362.44219 0.99663
3361.01379 0.99670
3359.58540 0.99677
3358.15700 0.99685
3356.72861 0.99693
3355.30021 0.99701
3353.87182 0.99709
3352.44342 0.99716
3351.01503 0.99723
3349.58663 0.99730
3348.15824 0.99738
3346.72984 0.99747
3345.30145 0.99759
3343.87305 0.99772
3342.44466 0.99786
3341.01626 0.99801
3339.58787 0.99814
3338.15947 0.99825
3336.73108 0.99834
3335.30268 0.99841
3333.87428 0.99847
3332.44589 0.99852
3331.01749 0.99854
3329.58910 0.99855
3328.16070 0.99854
3326.73231 0.99852
3325.30391 0.99852
3323.87552 0.99854
3322.44712 0.99859
3321.01873 0.99866
3319.59033 0.99872
3318.16194 0.99876
3316.73354 0.99878
3315.30515 0.99878
3313.87675 0.99877
3312.44836 0.99876
3311.01996 0.99875
3309.59157 0.99875
3308.16317 0.99877
3306.73478 0.99878
3305.30638 0.99881
3303.87799 0.99883
3302.44959 0.99886
3301.02120 0.99887
3299.59280 0.99887
3298.16441 0.99886
3296.73601 0.99884
3295.30762 0.99880
3293.87922 0.99877
3292.45083 0.99874
3291.02243 0.99872
3289.59404 0.99871
3288.16564 0.99873
3286.73724 0.99877
3285.30885 0.99882
3283.88045 0.99889
3282.45206 0.99895
3281.02366 0.99899
3279.59527 0.99901
3278.16687 0.99902
3276.73848 0.99903
3275.31008 0.99904
3273.88169 0.99908
3272.45329 0.99913
3271.02490 0.99919
3269.59650 0.99925
3268.16811 0.99930
3266.73971 0.99936
3265.31132 0.99941
3263.88292 0.99946
3262.45453 0.99952
3261.02613 0.99957
3259.59774 0.99961
3258.16934 0.99964
3256.74095 0.99966
3255.31255 0.99967
3253.88416 0.99967
3252.45576 0.99968
3251.02737 0.99969
3249.59897 0.99971
3248.17058 0.99973
3246.74218 0.99975
3245.31379 0.99977
3243.88539 0.99978
3242.45700 0.99979
3241.02860 0.99982
3239.60020 0.99986
3238.17181 0.99990
3236.74341 0.99994
3235.31502 0.99996
3233.88662 0.99998
3232.45823 0.99998
3231.02983 0.99999
3229.60144 0.99999
3228.17304 0.99999
3226.74465 1.00000
3225.31625 0.99999
3223.88786 0.99999
3222.45946 0.99997
3221.03107 0.99996
3219.60267 0.99996
3218.17428 0.99996
3216.74588 0.99995
3215.31749 0.99995
3213.88909 0.99994
3212.46070 0.99993
3211.03230 0.99992
3209.60391 0.99992
3208.17551 0.99993
3206.74712 0.99994
3205.31872 0.99994
3203.89033 0.99993
3202.46193 0.99992
3201.03354 0.99991
3199.60514 0.99991
3198.17675 0.99992
3196.74835 0.99994
3195.31996 0.99995
3193.89156 0.99996
3192.46316 0.99996
3191.03477 0.99997
3189.60637 0.99997
3188.17798 0.99998
3186.74958 0.99999
3185.32119 0.99999
3183.89279 0.99999
3182.46440 0.99997
3181.03600 0.99996
3179.60761 0.99995
3178.17921 0.99994
3176.75082 0.99992
3175.32242 0.99989
3173.89403 0.99983
3172.46563 0.99974
3171.03724 0.99961
3169.60884 0.99948
3168.18045 0.99935
3166.75205 0.99924
3165.32366 0.99915
3163.89526 0.99907
3162.46687 0.99902
3161.03847 0.99898
3159.61008 0.99897
3158.18168 0.99898
3156.75329 0.99901
3155.32489 0.99906
3153.89650 0.99910
3152.46810 0.99912
3151.03971 0.99910
3149.61131 0.99906
3148.18292 0.99899
3146.75452 0.99892
3145.32612 0.99884
3143.89773 0.99876
3142.46933 0.99867
3141.04094 0.99858
3139.61254 0.99849
3138.18415 0.99841
3136.75575 0.99835
3135.32736 0.99831
3133.89896 0.99829
3132.47057 0.99827
3131.04217 0.99826
3129.61378 0.99822
3128.18538 0.99816
3126.75699 0.99808
3125.32859 0.99799
3123.90020 0.99787
3122.47180 0.99775
3121.04341 0.99762
3119.61501 0.99748
3118.18662 0.99736
3116.75822 0.99724
3115.32983 0.99715
3113.90143 0.99707
3112.47304 0.99701
3111.04464 0.99694
3109.61625 0.99688
3108.18785 0.99681
3106.75946 0.99675
3105.33106 0.99669
3103.90267 0.99663
3102.47427 0.99658
3101.04588 0.99654
3099.61748 0.99651
3098.18908 0.99648
3096.76069 0.99644
3095.33229 0.99640
3093.90390 0.99636
3092.47550 0.99632
3091.04711 0.99628
3089.61871 0.99624
3088.19032 0.99619
3086.76192 0.99614
3085.33353 0.99609
3083.90513 0.99604
3082.47674 0.99599
3081.04834 0.99595
3079.61995 0.99591
3078.19155 0.99587
3076.76316 0.99582
3075.33476 0.99576
3073.90637 0.99569
3072.47797 0.99562
3071.04958 0.99556
3069.62118 0.99551
3068.19279 0.99546
3066.76439 0.99542
3065.33600 0.99537
3063.90760 0.99533
3062.47921 0.99530
3061.05081 0.99527
3059.62242 0.99524
3058.19402 0.99521
3056.76563 0.99517
3055.33723 0.99513
3053.90884 0.99510
3052.48044 0.99507
3051.05204 0.99505
3049.62365 0.99504
3048.19525 0.99504
3046.76686 0.99505
3045.33846 0.99505
3043.91007 0.99505
3042.48167 0.99505
3041.05328 0.99504
3039.62488 0.99503
3038.19649 0.99502
3036.76809 0.99501
3035.33970 0.99500
3033.91130 0.99498
3032.48291 0.99497
3031.05451 0.99495
3029.62612 0.99493
3028.19772 0.99491
3026.76933 0.99490
3025.34093 0.99489
3023.91254 0.99488
3022.48414 0.99486
3021.05575 0.99484
3019.62735 0.99482
3018.19896 0.99480
3016.77056 0.99479
3015.34217 0.99478
3013.91377 0.99479
3012.48538 0.99480
3011.05698 0.99481
3009.62859 0.99482
3008.20019 0.99483
3006.77180 0.99484
3005.34340 0.99485
3003.91500 0.99485
3002.48661 0.99485
3001.05821 0.99484
2999.62982 0.99484
2998.20142 0.99483
2996.77303 0.99483
2995.34463 0.99483
2993.91624 0.99482
2992.48784 0.99482
2991.05945 0.99480
2989.63105 0.99479
2988.20266 0.99477
2986.77426 0.99474
2985.34587 0.99471
2983.91747 0.99468
2982.48908 0.99464
2981.06068 0.99460
2979.63229 0.99455
2978.20389 0.99451
2976.77550 0.99446
2975.34710 0.99441
2973.91871 0.99436
2972.49031 0.99430
2971.06192 0.99423
2969.63352 0.99416
2968.20513 0.99409
2966.77673 0.99403
2965.34834 0.99397
2963.91994 0.99392
2962.49155 0.99390
2961.06315 0.99390
2959.63476 0.99392
2958.20636 0.99396
2956.77796 0.99401
2955.34957 0.99408
2953.92117 0.99415
2952.49278 0.99423
2951.06438 0.99431
2949.63599 0.99439
2948.20759 0.99445
2946.77920 0.99451
2945.35080 0.99455
2943.92241 0.99457
2942.49401 0.99457
2941.06562 0.99455
2939.63722 0.99452
2938.20883 0.99450
2936.78043 0.99447
2935.35204 0.99445
2933.92364 0.99443
2932.49525 0.99442
2931.06685 0.99442
2929.63846 0.99442
2928.21006 0.99443
2926.78167 0.99446
2925.35327 0.99449
2923.92488 0.99454
2922.49648 0.99458
2921.06809 0.99463
2919.63969 0.99468
2918.21130 0.99474
2916.78290 0.99481
2915.35451 0.99488
2913.92611 0.99496
2912.49772 0.99503
2911.06932 0.99511
2909.64092 0.99517
2908.21253 0.99523
2906.78413 0.99527
2905.35574 0.99531
2903.92734 0.99534
2902.49895 0.99537
2901.07055 0.99540
2899.64216 0.99542
2898.21376 0.99545
2896.78537 0.99547
2895.35697 0.99550
2893.92858 0.99553
2892.50018 0.99556
2891.07179 0.99559
2889.64339 0.99563
2888.21500 0.99567
2886.78660 0.99571
2885.35821 0.99574
2883.92981 0.99577
2882.50142 0.99579
2881.07302 0.99581
2879.64463 0.99582
2878.21623 0.99583
2876.78784 0.99583
2875.35944 0.99584
2873.93105 0.99584
2872.50265 0.99584
2871.07426 0.99585
2869.64586 0.99587
2868.21747 0.99589
2866.78907 0.99591
2865.36068 0.99594
2863.93228 0.99597
2862.50388 0.99600
2861.07549 0.99603
2859.64709 0.99606
2858.21870 0.99607
2856.79030 0.99609
2855.36191 0.99610
2853.93351 0.99612
2852.50512 0.99615
2851.07672 0.99619
2849.64833 0.99624
2848.21993 0.99630
2846.79154 0.99635
2845.36314 0.99640
2843.93475 0.99645
2842.50635 0.99649
2841.07796 0.99652
2839.64956 0.99656
2838.22117 0.99661
2836.79277 0.99665
2835.36438 0.99669
2833.93598 0.99672
2832.50759 0.99676
2831.07919 0.99680
2829.65080 0.99683
2828.22240 0.99687
2826.79401 0.99691
2825.36561 0.99694
2823.93722 0.99695
2822.50882 0.99696
2821.08043 0.99697
2819.65203 0.99697
2818.22364 0.99697
2816.79524 0.99698
2815.36684 0.99700
2813.93845 0.99701
2812.51005 0.99703
2811.08166 0.99705
2809.65326 0.99706
2808.22487 0.99708
2806.79647 0.99710
2805.36808 0.99713
2803.93968 0.99715
2802.51129 0.99717
2801.08289 0.99719
2799.65450 0.99720
2798.22610 0.99721
2796.79771 0.99722
2795.36931 0.99723
2793.94092 0.99723
2792.51252 0.99725
2791.08413 0.99727
2789.65573 0.99730
2788.22734 0.99733
2786.79894 0.99736
2785.37055 0.99740
2783.94215 0.99743
2782.51376 0.99746
2781.08536 0.99749
2779.65697 0.99753
2778.22857 0.99756
2776.80018 0.99760
2775.37178 0.99763
2773.94339 0.99767
2772.51499 0.99770
2771.08660 0.99774
2769.65820 0.99777
2768.22980 0.99781
2766.80141 0.99784
2765.37301 0.99786
2763.94462 0.99788
2762.51622 0.99789
2761.08783 0.99789
2759.65943 0.99789
2758.23104 0.99789
2756.80264 0.99790
2755.37425 0.99791
2753.94585 0.99792
2752.51746 0.99795
2751.08906 0.99797
2749.66067 0.99799
2748.23227 0.99801
2746.80388 0.99802
2745.37548 0.99803
2743.94709 0.99804
2742.51869 0.99805
2741.09030 0.99805
2739.66190 0.99805
2738.23351 0.99805
2736.80511 0.99806
2735.37672 0.99806
2733.94832 0.99807
2732.51993 0.99809
2731.09153 0.99811
2729.66314 0.99813
2728.23474 0.99815
2726.80635 0.99816
2725.37795 0.99818
2723.94956 0.99818
2722.52116 0.99819
2721.09276 0.99820
2719.66437 0.99821
2718.23597 0.99823
2716.80758 0.99825
2715.37918 0.99827
2713.95079 0.99830
2712.52239 0.99833
2711.09400 0.99836
2709.66560 0.99838
2708.23721 0.99841
2706.80881 0.99843
2705.38042 0.99845
2703.95202 0.99847
2702.52363 0.99848
2701.09523 0.99849
2699.66684 0.99850
2698.23844 0.99852
2696.81005 0.99854
2695.38165 0.99857
2693.95326 0.99860
2692.52486 0.99863
2691.09647 0.99865
2689.66807 0.99867
2688.23968 0.99868
2686.81128 0.99869
2685.38289 0.99869
2683.95449 0.99869
2682.52610 0.99869
2681.09770 0.99868
2679.66931 0.99867
2678.24091 0.99867
2676.81252 0.99866
2675.38412 0.99865
2673.95572 0.99864
2672.52733 0.99864
2671.09893 0.99865
2669.67054 0.99867
2668.24214 0.99869
2666.81375 0.99871
2665.38535 0.99874
2663.95696 0.99877
2662.52856 0.99880
2661.10017 0.99883
2659.67177 0.99886
2658.24338 0.99890
2656.81498 0.99894
2655.38659 0.99898
2653.95819 0.99901
2652.52980 0.99904
2651.10140 0.99906
2649.67301 0.99908
2648.24461 0.99908
2646.81622 0.99909
2645.38782 0.99909
2643.95943 0.99908
2642.53103 0.99907
2641.10264 0.99906
2639.67424 0.99905
2638.24585 0.99905
2636.81745 0.99905
2635.38906 0.99907
2633.96066 0.99909
2632.53227 0.99912
2631.10387 0.99915
2629.67548 0.99918
2628.24708 0.99921
2626.81868 0.99924
2625.39029 0.99926
2623.96189 0.99928
2622.53350 0.99928
2621.10510 0.99928
2619.67671 0.99927
2618.24831 0.99926
2616.81992 0.99925
2615.39152 0.99924
2613.96313 0.99921
2612.53473 0.99919
2611.10634 0.99917
2609.67794 0.99916
2608.24955 0.99917
2606.82115 0.99919
2605.39276 0.99922
2603.96436 0.99926
2602.53597 0.99929
2601.10757 0.99932
2599.67918 0.99934
2598.25078 0.99936
2596.82239 0.99938
2595.39399 0.99939
2593.96560 0.99940
2592.53720 0.99939
2591.10881 0.99939
2589.68041 0.99938
2588.25202 0.99938
2586.82362 0.99939
2585.39523 0.99940
2583.96683 0.99942
2582.53843 0.99944
2581.11004 0.99945
2579.68164 0.99945
2578.25325 0.99944
2576.82485 0.99943
2575.39646 0.99942
2573.96806 0.99941
2572.53967 0.99940
2571.11127 0.99941
2569.68288 0.99942
2568.25448 0.99944
2566.82609 0.99947
2565.39769 0.99951
2563.96930 0.99954
2562.54090 0.99957
2561.11251 0.99959
2559.68411 0.99959
2558.25572 0.99958
2556.82732 0.99956
2555.39893 0.99954
2553.97053 0.99952
2552.54214 0.99951
2551.11374 0.99950
2549.68535 0.99951
2548.25695 0.99953
2546.82856 0.99956
2545.40016 0.99960
2543.97177 0.99964
2542.54337 0.99969
2541.11498 0.99974
2539.68658 0.99977
2538.25819 0.99980
2536.82979 0.99982
2535.40139 0.99983
2533.97300 0.99983
2532.54460 0.99982
2531.11621 0.99981
2529.68781 0.99979
2528.25942 0.99977
2526.83102 0.99975
2525.40263 0.99973
2523.97423 0.99972
2522.54584 0.99972
2521.11744 0.99972
2519.68905 0.99974
2518.26065 0.99977
2516.83226 0.99980
2515.40386 0.99983
2513.97547 0.99986
2512.54707 0.99989
2511.11868 0.99991
2509.69028 0.99993
2508.26189 0.99994
2506.83349 0.99995
2505.40510 0.99994
2503.97670 0.99992
2502.54831 0.99988
2501.11991 0.99984
2499.69152 0.99979
2498.26312 0.99975
2496.83473 0.99972
2495.40633 0.99969
2493.97794 0.99968
2492.54954 0.99968
2491.12115 0.99968
2489.69275 0.99969
2488.26435 0.99972
2486.83596 0.99974
2485.40756 0.99977
2483.97917 0.99979
2482.55077 0.99980
2481.12238 0.99981
2479.69398 0.99981
2478.26559 0.99981
2476.83719 0.99982
2475.40880 0.99983
2473.98040 0.99985
2472.55201 0.99987
2471.12361 0.99990
2469.69522 0.99992
2468.26682 0.99995
2466.83843 0.99997
2465.41003 0.99999
2463.98164 1.00000
2462.55324 0.99999
2461.12485 0.99998
2459.69645 0.99997
2458.26806 0.99995
2456.83966 0.99994
2455.41127 0.99994
2453.98287 0.99994
2452.55448 0.99993
2451.12608 0.99993
2449.69769 0.99993
2448.26929 0.99992
2446.84090 0.99992
2445.41250 0.99992
2443.98411 0.99992
2442.55571 0.99991
2441.12731 0.99989
2439.69892 0.99987
2438.27052 0.99986
2436.84213 0.99984
2435.41373 0.99983
2433.98534 0.99982
2432.55694 0.99981
2431.12855 0.99981
2429.70015 0.99980
2428.27176 0.99980
2426.84336 0.99981
2425.41497 0.99984
2423.98657 0.99987
2422.55818 0.99990
2421.12978 0.99993
2419.70139 0.99996
2418.27299 0.99999
2416.84460 1.00000
2415.41620 0.99999
2413.98781 0.99998
2412.55941 0.99996
2411.13102 0.99993
2409.70262 0.99990
2408.27423 0.99988
2406.84583 0.99988
2405.41744 0.99988
2403.98904 0.99990
2402.56065 0.99993
2401.13225 0.99996
2399.70386 0.99998
2398.27546 1.00000
2396.84707 1.00001
2395.41867 1.00001
2393.99027 1.00001
2392.56188 1.00000
2391.13348 0.99999
2389.70509 0.99997
2388.27669 0.99996
2386.84830 0.99994
2385.41990 0.99993
2383.99151 0.99991
2382.56311 0.99989
2381.13472 0.99986
2379.70632 0.99983
2378.27793 0.99981
2376.84953 0.99981
2375.42114 0.99983
2373.99274 0.99988
2372.56435 0.99994
2371.13595 0.99999
2369.70756 1.00003
2368.27916 1.00005
2366.85077 1.00005
2365.42237 1.00005
2363.99398 1.00006
2362.56558 1.00007
2361.13719 1.00007
2359.70879 1.00007
2358.28040 1.00006
2356.85200 1.00005
2355.42361 1.00005
2353.99521 1.00009
2352.56682 1.00015
2351.13842 1.00022
2349.71003 1.00029
2348.28163 1.00035
2346.85323 1.00039
2345.42484 1.00043
2343.99644 1.00049
2342.56805 1.00056
2341.13965 1.00064
2339.71126 1.00071
2338.28286 1.00076
2336.85447 1.00078
2335.42607 1.00076
2333.99768 1.00072
2332.56928 1.00066
2331.14089 1.00059
2329.71249 1.00049
2328.28410 1.00037
2326.85570 1.00023
2325.42731 1.00007
2323.99891 0.99993
2322.57052 0.99983
2321.14212 0.99976
2319.71373 0.99975
2318.28533 0.99976
2316.85694 0.99980
2315.42854 0.99985
2314.00015 0.99991
2312.57175 0.99996
2311.14336 1.00001
2309.71496 1.00004
2308.28657 1.00006
2306.85817 1.00006
2305.42978 1.00005
2304.00138 1.00003
2302.57299 1.00001
2301.14459 1.00001
2299.71619 1.00004
2298.28780 1.00007
2296.85940 1.00011
2295.43101 1.00015
2294.00261 1.00018
2292.57422 1.00019
2291.14582 1.00018
2289.71743 1.00016
2288.28903 1.00013
2286.86064 1.00009
2285.43224 1.00005
2284.00385 1.00001
2282.57545 0.99999
2281.14706 0.99997
2279.71866 0.99997
2278.29027 0.99997
2276.86187 0.99997
2275.43348 0.99996
2274.00508 0.99994
2272.57669 0.99991
2271.14829 0.99987
2269.71990 0.99981
2268.29150 0.99975
2266.86311 0.99970
2265.43471 0.99964
2264.00632 0.99960
2262.57792 0.99956
2261.14953 0.99954
2259.72113 0.99952
2258.29274 0.99953
2256.86434 0.99954
2255.43595 0.99957
2254.00755 0.99960
2252.57915 0.99963
2251.15076 0.99965
2249.72236 0.99966
2248.29397 0.99966
2246.86557 0.99966
2245.43718 0.99965
2244.00878 0.99964
2242.58039 0.99961
2241.15199 0.99957
2239.72360 0.99950
2238.29520 0.99942
2236.86681 0.99932
2235.43841 0.99923
2234.01002 0.99914
2232.58162 0.99908
2231.15323 0.99903
2229.72483 0.99901
2228.29644 0.99901
2226.86804 0.99904
2225.43965 0.99909
2224.01125 0.99916
2222.58286 0.99927
2221.15446 0.99940
2219.72607 0.99956
2218.29767 0.99972
2216.86928 0.99986
2215.44088 0.99995
2214.01249 0.99999
2212.58409 0.99999
2211.15570 0.99996
2209.72730 0.99990
2208.29891 0.99984
2206.87051 0.99976
2205.44211 0.99969
2204.01372 0.99962
2202.58532 0.99957
2201.15693 0.99956
2199.72853 0.99957
2198.30014 0.99961
2196.87174 0.99965
2195.44335 0.99970
2194.01495 0.99974
2192.58656 0.99978
2191.15816 0.99983
2189.72977 0.99988
2188.30137 0.99993
2186.87298 0.99997
2185.44458 0.99999
2184.01619 0.99997
2182.58779 0.99994
2181.15940 0.99989
2179.73100 0.99985
2178.30261 0.99981
2176.87421 0.99978
2175.44582 0.99975
2174.01742 0.99974
2172.58903 0.99974
2171.16063 0.99976
2169.73224 0.99978
2168.30384 0.99980
2166.87545 0.99982
2165.44705 0.99984
2164.01866 0.99986
2162.59026 0.99987
2161.16187 0.99987
2159.73347 0.99984
2158.30507 0.99978
2156.87668 0.99971
2155.44828 0.99963
2154.01989 0.99956
2152.59149 0.99951
2151.16310 0.99946
2149.73470 0.99940
2148.30631 0.99934
2146.87791 0.99928
2145.44952 0.99926
2144.02112 0.99929
2142.59273 0.99938
2141.16433 0.99952
2139.73594 0.99967
2138.30754 0.99979
2136.87915 0.99987
2135.45075 0.99990
2134.02236 0.99989
2132.59396 0.99986
2131.16557 0.99982
2129.73717 0.99978
2128.30878 0.99972
2126.88038 0.99967
2125.45199 0.99962
2124.02359 0.99959
2122.59520 0.99958
2121.16680 0.99959
2119.73841 0.99960
2118.31001 0.99961
2116.88162 0.99960
2115.45322 0.99957
2114.02483 0.99953
2112.59643 0.99949
2111.16803 0.99946
2109.73964 0.99942
2108.31124 0.99938
2106.88285 0.99933
2105.45445 0.99929
2104.02606 0.99925
2102.59766 0.99923
2101.16927 0.99920
2099.74087 0.99917
2098.31248 0.99913
2096.88408 0.99907
2095.45569 0.99902
2094.02729 0.99900
2092.59890 0.99904
2091.17050 0.99912
2089.74211 0.99926
2088.31371 0.99942
2086.88532 0.99958
2085.45692 0.99972
2084.02853 0.99984
2082.60013 0.99991
2081.17174 0.99994
2079.74334 0.99994
2078.31495 0.99989
2076.88655 0.99980
2075.45816 0.99970
2074.02976 0.99959
2072.60137 0.99950
2071.17297 0.99943
2069.74458 0.99939
2068.31618 0.99937
2066.88779 0.99937
2065.45939 0.99939
2064.03099 0.99940
2062.60260 0.99941
2061.17420 0.99941
2059.74581 0.99940
2058.31741 0.99938
2056.88902 0.99937
2055.46062 0.99937
2054.03223 0.99940
2052.60383 0.99945
2051.17544 0.99952
2049.74704 0.99960
2048.31865 0.99969
2046.89025 0.99979
2045.46186 0.99988
2044.03346 0.99994
2042.60507 0.99997
2041.17667 0.99995
2039.74828 0.99989
2038.31988 0.99980
2036.89149 0.99969
2035.46309 0.99956
2034.03470 0.99941
2032.60630 0.99925
2031.17791 0.99910
2029.74951 0.99898
2028.32112 0.99892
2026.89272 0.99893
2025.46433 0.99898
2024.03593 0.99905
2022.60754 0.99911
2021.17914 0.99915
2019.75075 0.99916
2018.32235 0.99918
2016.89395 0.99921
2015.46556 0.99925
2014.03716 0.99928
2012.60877 0.99928
2011.18037 0.99926
2009.75198 0.99921
2008.32358 0.99917
2006.89519 0.99915
2005.46679 0.99916
2004.03840 0.99918
2002.61000 0.99921
2001.18161 0.99924
1999.75321 0.99928
1998.32482 0.99933
1996.89642 0.99940
1995.46803 0.99948
1994.03963 0.99958
1992.61124 0.99968
1991.18284 0.99979
1989.75445 0.99988
1988.32605 0.99995
1986.89766 0.99996
1985.46926 0.99993
1984.04087 0.99984
1982.61247 0.99973
1981.18408 0.99963
1979.75568 0.99955
1978.32729 0.99948
1976.89889 0.99943
1975.47050 0.99936
1974.04210 0.99927
1972.61371 0.99919
1971.18531 0.99912
1969.75691 0.99909
1968.32852 0.99910
1966.90012 0.99912
1965.47173 0.99913
1964.04333 0.99912
1962.61494 0.99910
1961.18654 0.99908
1959.75815 0.99909
1958.32975 0.99914
1956.90136 0.99922
1955.47296 0.99930
1954.04457 0.99936
1952.61617 0.99938
1951.18778 0.99938
1949.75938 0.99936
1948.33099 0.99935
1946.90259 0.99935
1945.47420 0.99937
1944.04580 0.99939
1942.61741 0.99941
1941.18901 0.99944
1939.76062 0.99948
1938.33222 0.99954
1936.90383 0.99960
1935.47543 0.99967
1934.04704 0.99973
1932.61864 0.99976
1931.19025 0.99975
1929.76185 0.99969
1928.33346 0.99958
1926.90506 0.99946
1925.47667 0.99935
1924.04827 0.99926
1922.61987 0.99919
1921.19148 0.99916
1919.76308 0.99915
1918.33469 0.99916
1916.90629 0.99919
1915.47790 0.99924
1914.04950 0.99930
1912.62111 0.99939
1911.19271 0.99947
1909.76432 0.99953
1908.33592 0.99957
1906.90753 0.99957
1905.47913 0.99956
1904.05074 0.99954
1902.62234 0.99952
1901.19395 0.99951
1899.76555 0.99949
1898.33716 0.99947
1896.90876 0.99943
1895.48037 0.99939
1894.05197 0.99937
1892.62358 0.99938
1891.19518 0.99942
1889.76679 0.99949
1888.33839 0.99957
1886.91000 0.99964
1885.48160 0.99971
1884.05321 0.99977
1882.62481 0.99983
1881.19642 0.99987
1879.76802 0.99986
1878.33963 0.99980
1876.91123 0.99969
1875.48283 0.99954
1874.05444 0.99940
1872.62604 0.99929
1871.19765 0.99922
1869.76925 0.99920
1868.34086 0.99921
1866.91246 0.99924
1865.48407 0.99929
1864.05567 0.99938
1862.62728 0.99950
1861.19888 0.99965
1859.77049 0.99979
1858.34209 0.99991
1856.91370 0.99996
1855.48530 0.99995
1854.05691 0.99987
1852.62851 0.99976
1851.20012 0.99964
1849.77172 0.99954
1848.34333 0.99945
1846.91493 0.99939
1845.48654 0.99936
1844.05814 0.99936
1842.62975 0.99938
1841.20135 0.99942
1839.77296 0.99946
1838.34456 0.99948
1836.91617 0.99948
1835.48777 0.99945
1834.05938 0.99940
1832.63098 0.99934
1831.20258 0.99928
1829.77419 0.99923
1828.34579 0.99922
1826.91740 0.99925
1825.48900 0.99933
1824.06061 0.99946
1822.63221 0.99961
1821.20382 0.99976
1819.77542 0.99988
1818.34703 0.99996
1816.91863 1.00001
1815.49024 1.00002
1814.06184 1.00000
1812.63345 0.99997
1811.20505 0.99992
1809.77666 0.99986
1808.34826 0.99978
1806.91987 0.99971
1805.49147 0.99964
1804.06308 0.99956
1802.63468 0.99947
1801.20629 0.99937
1799.77789 0.99927
1798.34950 0.99917
1796.92110 0.99911
1795.49271 0.99909
1794.06431 0.99913
1792.63592 0.99919
1791.20752 0.99928
1789.77913 0.99938
1788.35073 0.99949
1786.92234 0.99961
1785.49394 0.99973
1784.06554 0.99982
1782.63715 0.99984
1781.20875 0.99979
1779.78036 0.99966
1778.35196 0.99949
1776.92357 0.99933
1775.49517 0.99921
1774.06678 0.99915
1772.63838 0.99914
1771.20999 0.99916
1769.78159 0.99921
1768.35320 0.99928
1766.92480 0.99939
1765.49641 0.99954
1764.06801 0.99971
1762.63962 0.99986
1761.21122 0.99995
1759.78283 0.99996
1758.35443 0.99986
1756.92604 0.99968
1755.49764 0.99945
1754.06925 0.99922
1752.64085 0.99901
1751.21246 0.99883
1749.78406 0.99868
1748.35567 0.99857
1746.92727 0.99850
1745.49888 0.99846
1744.07048 0.99846
1742.64209 0.99848
1741.21369 0.99851
1739.78530 0.99855
1738.35690 0.99860
1736.92850 0.99866
1735.50011 0.99873
1734.07171 0.99885
1732.64332 0.99901
1731.21492 0.99922
1729.78653 0.99944
1728.35813 0.99963
1726.92974 0.99975
1725.50134 0.99978
1724.07295 0.99971
1722.64455 0.99957
1721.21616 0.99940
1719.78776 0.99923
1718.35937 0.99908
1716.93097 0.99897
1715.50258 0.99890
1714.07418 0.99889
1712.64579 0.99893
1711.21739 0.99899
1709.78900 0.99906
1708.36060 0.99907
1706.93221 0.99900
1705.50381 0.99884
1704.07542 0.99861
1702.64702 0.99838
1701.21863 0.99821
1699.79023 0.99815
1698.36184 0.99819
1696.93344 0.99828
1695.50505 0.99836
1694.07665 0.99840
1692.64826 0.99837
1691.21986 0.99827
1689.79146 0.99812
1688.36307 0.99792
1686.93467 0.99770
1685.50628 0.99747
1684.07788 0.99724
1682.64949 0.99701
1681.22109 0.99681
1679.79270 0.99665
1678.36430 0.99651
1676.93591 0.99640
1675.50751 0.99629
1674.07912 0.99615
1672.65072 0.99597
1671.22233 0.99573
1669.79393 0.99546
1668.36554 0.99520
1666.93714 0.99497
1665.50875 0.99476
1664.08035 0.99454
1662.65196 0.99428
1661.22356 0.99395
1659.79517 0.99352
1658.36677 0.99301
1656.93838 0.99247
1655.50998 0.99194
1654.08159 0.99148
1652.65319 0.99113
1651.22480 0.99093
1649.79640 0.99088
1648.36801 0.99094
1646.93961 0.99109
1645.51122 0.99129
1644.08282 0.99151
1642.65442 0.99173
1641.22603 0.99196
1639.79763 0.99219
1638.36924 0.99239
1636.94084 0.99256
1635.51245 0.99269
1634.08405 0.99279
1632.65566 0.99289
1631.22726 0.99302
1629.79887 0.99319
1628.37047 0.99339
1626.94208 0.99356
1625.51368 0.99369
1624.08529 0.99377
1622.65689 0.99383
1621.22850 0.99392
1619.80010 0.99404
1618.37171 0.99422
1616.94331 0.99442
1615.51492 0.99463
1614.08652 0.99483
1612.65813 0.99501
1611.22973 0.99518
1609.80134 0.99531
1608.37294 0.99541
1606.94455 0.99546
1605.51615 0.99545
1604.08776 0.99539
1602.65936 0.99527
1601.23097 0.99511
1599.80257 0.99492
1598.37418 0.99471
1596.94578 0.99448
1595.51738 0.99422
1594.08899 0.99395
1592.66059 0.99367
1591.23220 0.99341
1589.80380 0.99314
1588.37541 0.99285
1586.94701 0.99253
1585.51862 0.99216
1584.09022 0.99175
1582.66183 0.99131
1581.23343 0.99084
1579.80504 0.99036
1578.37664 0.98990
1576.94825 0.98945
1575.51985 0.98906
1574.09146 0.98876
1572.66306 0.98855
1571.23467 0.98840
1569.80627 0.98827
1568.37788 0.98814
1566.94948 0.98795
1565.52109 0.98772
1564.09269 0.98747
1562.66430 0.98725
1561.23590 0.98707
1559.80751 0.98696
1558.37911 0.98695
1556.95072 0.98704
1555.52232 0.98720
1554.09393 0.98741
1552.66553 0.98762
1551.23714 0.98780
1549.80874 0.98793
1548.38034 0.98800
1546.95195 0.98802
1545.52355 0.98805
1544.09516 0.98812
1542.66676 0.98825
1541.23837 0.98850
1539.80997 0.98888
1538.38158 0.98941
1536.95318 0.99005
1535.52479 0.99077
1534.09639 0.99150
1532.66800 0.99214
1531.23960 0.99262
1529.81121 0.99293
1528.38281 0.99308
1526.95442 0.99315
1525.52602 0.99320
1524.09763 0.99331
1522.66923 0.99348
1521.24084 0.99371
1519.81244 0.99393
1518.38405 0.99413
1516.95565 0.99428
1515.52726 0.99441
1514.09886 0.99453
1512.67047 0.99468
1511.24207 0.99486
1509.81368 0.99506
1508.38528 0.99527
1506.95689 0.99549
1505.52849 0.99574
1504.10010 0.99604
1502.67170 0.99642
1501.24330 0.99684
1499.81491 0.99726
1498.38651 0.99758
1496.95812 0.99778
1495.52972 0.99787
1494.10133 0.99790
1492.67293 0.99793
1491.24454 0.99802
1489.81614 0.99820
1488.38775 0.99844
1486.95935 0.99868
1485.53096 0.99887
1484.10256 0.99901
1482.67417 0.99907
1481.24577 0.99907
1479.81738 0.99901
1478.38898 0.99891
1476.96059 0.99878
1475.53219 0.99864
1474.10380 0.99852
1472.67540 0.99845
1471.24701 0.99845
1469.81861 0.99849
1468.39022 0.99854
1466.96182 0.99856
1465.53343 0.99853
1464.10503 0.99842
1462.67664 0.99825
1461.24824 0.99806
1459.81985 0.99788
1458.39145 0.99772
1456.96306 0.99763
1455.53466 0.99761
1454.10626 0.99767
1452.67787 0.99782
1451.24947 0.99804
1449.82108 0.99831
1448.39268 0.99855
1446.96429 0.99874
1445.53589 0.99882
1444.10750 0.99881
1442.67910 0.99872
1441.25071 0.99860
1439.82231 0.99848
1438.39392 0.99839
1436.96552 0.99830
1435.53713 0.99823
1434.10873 0.99817
1432.68034 0.99813
1431.25194 0.99809
1429.82355 0.99802
1428.39515 0.99792
1426.96676 0.99777
1425.53836 0.99758
1424.10997 0.99735
1422.68157 0.99713
1421.25318 0.99691
1419.82478 0.99673
1418.39639 0.99658
1416.96799 0.99645
1415.53960 0.99635
1414.11120 0.99627
1412.68281 0.99622
1411.25441 0.99617
1409.82602 0.99608
1408.39762 0.99593
1406.96922 0.99570
1405.54083 0.99540
1404.11243 0.99505
1402.68404 0.99469
1401.25564 0.99437
1399.82725 0.99409
1398.39885 0.99388
1396.97046 0.99371
1395.54206 0.99358
1394.11367 0.99352
1392.68527 0.99352
1391.25688 0.99361
1389.82848 0.99376
1388.40009 0.99396
1386.97169 0.99418
1385.54330 0.99439
1384.11490 0.99458
1382.68651 0.99474
1381.25811 0.99491
1379.82972 0.99509
1378.40132 0.99530
1376.97293 0.99553
1375.54453 0.99577
1374.11614 0.99600
1372.68774 0.99622
1371.25935 0.99643
1369.83095 0.99665
1368.40256 0.99688
1366.97416 0.99712
1365.54577 0.99736
1364.11737 0.99760
1362.68898 0.99781
1361.26058 0.99801
1359.83218 0.99819
1358.40379 0.99835
1356.97539 0.99852
1355.54700 0.99870
1354.11860 0.99888
1352.69021 0.99903
1351.26181 0.99913
1349.83342 0.99918
1348.40502 0.99917
1346.97663 0.99912
1345.54823 0.99907
1344.11984 0.99903
1342.69144 0.99902
1341.26305 0.99903
1339.83465 0.99907
1338.40626 0.99913
1336.97786 0.99920
1335.54947 0.99930
1334.12107 0.99942
1332.69268 0.99956
1331.26428 0.99970
1329.83589 0.99982
1328.40749 0.99989
1326.97910 0.99991
1325.55070 0.99988
1324.12231 0.99983
1322.69391 0.99976
1321.26552 0.99970
1319.83712 0.99964
1318.40873 0.99959
1316.98033 0.99955
1315.55194 0.99952
1314.12354 0.99950
1312.69514 0.99950
1311.26675 0.99951
1309.83835 0.99952
1308.40996 0.99953
1306.98156 0.99953
1305.55317 0.99951
1304.12477 0.99948
1302.69638 0.99944
1301.26798 0.99940
1299.83959 0.99934
1298.41119 0.99929
1296.98280 0.99923
1295.55440 0.99918
1294.12601 0.99913
1292.69761 0.99908
1291.26922 0.99904
1289.84082 0.99900
1288.41243 0.99895
1286.98403 0.99890
1285.55564 0.99885
1284.12724 0.99880
1282.69885 0.99876
1281.27045 0.99873
1279.84206 0.99871
1278.41366 0.99869
1276.98527 0.99867
1275.55687 0.99865
1274.12848 0.99863
1272.70008 0.99859
1271.27169 0.99853
1269.84329 0.99845
1268.41490 0.99835
1266.98650 0.99824
1265.55810 0.99813
1264.12971 0.99804
1262.70131 0.99797
1261.27292 0.99795
1259.84452 0.99798
1258.41613 0.99804
1256.98773 0.99814
1255.55934 0.99828
1254.13094 0.99844
1252.70255 0.99863
1251.27415 0.99881
1249.84576 0.99899
1248.41736 0.99913
1246.98897 0.99925
1245.56057 0.99934
1244.13218 0.99941
1242.70378 0.99946
1241.27539 0.99952
1239.84699 0.99957
1238.41860 0.99961
1236.99020 0.99965
1235.56181 0.99968
1234.13341 0.99971
1232.70502 0.99975
1231.27662 0.99978
1229.84823 0.99982
1228.41983 0.99986
1226.99144 0.99990
1225.56304 0.99992
1224.13465 0.99993
1222.70625 0.99993
1221.27786 0.99991
1219.84946 0.99989
1218.42106 0.99986
1216.99267 0.99984
1215.56427 0.99983
1214.13588 0.99982
1212.70748 0.99982
1211.27909 0.99982
1209.85069 0.99982
1208.42230 0.99982
1206.99390 0.99983
1205.56551 0.99986
1204.13711 0.99989
1202.70872 0.99992
1201.28032 0.99995
1199.85193 0.99997
1198.42353 0.99998
1196.99514 0.99999
1195.56674 0.99999
1194.13835 1.00000
1192.70995 1.00000
1191.28156 0.99999
1189.85316 0.99997
1188.42477 0.99994
1186.99637 0.99991
1185.56798 0.99988
1184.13958 0.99986
1182.71119 0.99985
1181.28279 0.99984
1179.85440 0.99985
1178.42600 0.99985
1176.99761 0.99986
1175.56921 0.99986
1174.14082 0.99985
1172.71242 0.99983
1171.28402 0.99981
1169.85563 0.99979
1168.42723 0.99978
1166.99884 0.99979
1165.57044 0.99980
1164.14205 0.99982
1162.71365 0.99984
1161.28526 0.99987
1159.85686 0.99988
1158.42847 0.99989
1157.00007 0.99989
1155.57168 0.99987
1154.14328 0.99983
1152.71489 0.99978
1151.28649 0.99972
1149.85810 0.99966
1148.42970 0.99961
1147.00131 0.99957
1145.57291 0.99955
1144.14452 0.99954
1142.71612 0.99954
1141.28773 0.99955
1139.85933 0.99957
1138.43094 0.99959
1137.00254 0.99961
1135.57415 0.99961
1134.14575 0.99960
1132.71736 0.99957
1131.28896 0.99952
1129.86057 0.99945
1128.43217 0.99937
1127.00378 0.99928
1125.57538 0.99919
1124.14698 0.99911
1122.71859 0.99902
1121.29019 0.99895
1119.86180 0.99888
1118.43340 0.99882
1117.00501 0.99876
1115.57661 0.99871
1114.14822 0.99866
1112.71982 0.99860
1111.29143 0.99854
1109.86303 0.99847
1108.43464 0.99839
1107.00624 0.99831
1105.57785 0.99824
1104.14945 0.99817
1102.72106 0.99810
1101.29266 0.99804
1099.86427 0.99799
1098.43587 0.99794
1097.00748 0.99790
1095.57908 0.99786
1094.15069 0.99784
1092.72229 0.99783
1091.29390 0.99784
1089.86550 0.99786
1088.43711 0.99789
1087.00871 0.99794
1085.58032 0.99798
1084.15192 0.99802
1082.72353 0.99805
1081.29513 0.99808
1079.86673 0.99809
1078.43834 0.99810
1077.00994 0.99812
1075.58155 0.99813
1074.15315 0.99814
1072.72476 0.99816
1071.29636 0.99819
1069.86797 0.99821
1068.43957 0.99825
1067.01118 0.99829
1065.58278 0.99834
1064.15439 0.99838
1062.72599 0.99842
1061.29760 0.99844
1059.86920 0.99846
1058.44081 0.99847
1057.01241 0.99848
1055.58402 0.99848
1054.15562 0.99848
1052.72723 0.99846
1051.29883 0.99842
1049.87044 0.99837
1048.44204 0.99831
1047.01365 0.99825
1045.58525 0.99820
1044.15686 0.99817
1042.72846 0.99814
1041.30007 0.99811
1039.87167 0.99808
1038.44328 0.99806
1037.01488 0.99802
1035.58649 0.99799
1034.15809 0.99797
1032.72969 0.99794
1031.30130 0.99792
1029.87290 0.99791
1028.44451 0.99789
1027.01611 0.99787
1025.58772 0.99785
1024.15932 0.99785
1022.73093 0.99786
1021.30253 0.99789
1019.87414 0.99793
1018.44574 0.99799
1017.01735 0.99804
1015.58895 0.99811
1014.16056 0.99818
1012.73216 0.99827
1011.30377 0.99837
1009.87537 0.99849
1008.44698 0.99860
1007.01858 0.99871
1005.59019 0.99879
1004.16179 0.99886
1002.73340 0.99891
1001.30500 0.99895
999.87661 0.99899
998.44821 0.99902
997.01982 0.99906
995.59142 0.99909
994.16303 0.99911
992.73463 0.99913
991.30624 0.99915
989.87784 0.99915
988.44945 0.99915
987.02105 0.99914
985.59265 0.99912
984.16426 0.99909
982.73586 0.99906
981.30747 0.99902
979.87907 0.99898
978.45068 0.99896
977.02228 0.99895
975.59389 0.99894
974.16549 0.99895
972.73710 0.99895
971.30870 0.99896
969.88031 0.99895
968.45191 0.99894
967.02352 0.99893
965.59512 0.99891
964.16673 0.99889
962.73833 0.99888
961.30994 0.99888
959.88154 0.99888
958.45315 0.99889
957.02475 0.99890
955.59636 0.99892
954.16796 0.99894
952.73957 0.99897
951.31117 0.99899
949.88278 0.99901
948.45438 0.99903
947.02599 0.99903
945.59759 0.99904
944.16920 0.99905
942.74080 0.99907
941.31241 0.99908
939.88401 0.99910
938.45561 0.99910
937.02722 0.99910
935.59882 0.99909
934.17043 0.99908
932.74203 0.99908
931.31364 0.99908
929.88524 0.99909
928.45685 0.99909
927.02845 0.99908
925.60006 0.99907
924.17166 0.99905
922.74327 0.99904
921.31487 0.99904
919.88648 0.99905
918.45808 0.99906
917.02969 0.99907
915.60129 0.99906
914.17290 0.99904
912.74450 0.99900
911.31611 0.99897
909.88771 0.99894
908.45932 0.99891
907.03092 0.99888
905.60253 0.99885
904.17413 0.99882
902.74574 0.99880
901.31734 0.99880
899.88895 0.99883
898.46055 0.99887
897.03216 0.99892
895.60376 0.99897
894.17537 0.99901
892.74697 0.99903
891.31857 0.99903
889.89018 0.99902
888.46178 0.99900
887.03339 0.99897
885.60499 0.99893
884.17660 0.99889
882.74820 0.99886
881.31981 0.99884
879.89141 0.99884
878.46302 0.99888
877.03462 0.99893
875.60623 0.99899
874.17783 0.99906
872.74944 0.99913
871.32104 0.99920
869.89265 0.99927
868.46425 0.99934
867.03586 0.99940
865.60746 0.99944
864.17907 0.99945
862.75067 0.99943
861.32228 0.99940
859.89388 0.99936
858.46549 0.99933
857.03709 0.99930
855.60870 0.99927
854.18030 0.99924
852.75191 0.99921
851.32351 0.99918
849.89512 0.99917
848.46672 0.99916
847.03833 0.99918
845.60993 0.99919
844.18153 0.99920
842.75314 0.99920
841.32474 0.99920
839.89635 0.99918
838.46795 0.99915
837.03956 0.99912
835.61116 0.99908
834.18277 0.99903
832.75437 0.99896
831.32598 0.99889
829.89758 0.99883
828.46919 0.99878
827.04079 0.99873
825.61240 0.99869
824.18400 0.99866
822.75561 0.99863
821.32721 0.99862
819.89882 0.99862
818.47042 0.99863
817.04203 0.99865
815.61363 0.99866
814.18524 0.99864
812.75684 0.99859
811.32845 0.99851
809.90005 0.99841
808.47166 0.99830
807.04326 0.99818
805.61487 0.99808
804.18647 0.99799
802.75808 0.99793
801.32968 0.99790
799.90129 0.99791
798.47289 0.99795
797.04449 0.99802
795.61610 0.99812
794.18770 0.99823
792.75931 0.99834
791.33091 0.99844
789.90252 0.99852
788.47412 0.99858
787.04573 0.99864
785.61733 0.99869
784.18894 0.99875
782.76054 0.99882
781.33215 0.99890
779.90375 0.99898
778.47536 0.99907
777.04696 0.99916
775.61857 0.99923
774.19017 0.99929
772.76178 0.99933
771.33338 0.99936
769.90499 0.99938
768.47659 0.99938
767.04820 0.99937
765.61980 0.99936
764.19141 0.99935
762.76301 0.99934
761.33462 0.99934
759.90622 0.99935
758.47783 0.99937
757.04943 0.99942
755.62104 0.99947
754.19264 0.99953
752.76425 0.99959
751.33585 0.99963
749.90745 0.99965
748.47906 0.99964
747.05066 0.99961
745.62227 0.99957
744.19387 0.99954
742.76548 0.99952
741.33708 0.99953
739.90869 0.99956
738.48029 0.99960
737.05190 0.99966
735.62350 0.99970
734.19511 0.99974
732.76671 0.99977
731.33832 0.99980
729.90992 0.99982
728.48153 0.99983
727.05313 0.99982
725.62474 0.99978
724.19634 0.99972
722.76795 0.99965
721.33955 0.99960
719.91116 0.99959
718.48276 0.99961
717.05437 0.99965
715.62597 0.99969
714.19758 0.99970
712.76918 0.99969
711.34079 0.99966
709.91239 0.99963
708.48400 0.99961
707.05560 0.99960
705.62721 0.99959
704.19881 0.99956
702.77041 0.99950
701.34202 0.99940
699.91362 0.99931
698.48523 0.99924
697.05683 0.99921
695.62844 0.99922
694.20004 0.99925
692.77165 0.99927
691.34325 0.99929
689.91486 0.99931
688.48646 0.99934
687.05807 0.99941
685.62967 0.99952
684.20128 0.99967
682.77288 0.99983
681.34449 0.99999
679.91609 1.00012
678.48770 1.00023
677.05930 1.00030
675.63091 1.00033
674.20251 1.00030
672.77412 1.00021
671.34572 1.00007
669.91733 0.99987
668.48893 0.99967
667.06054 0.99950
665.63214 0.99939
664.20375 0.99935
662.77535 0.99937
661.34696 0.99944
659.91856 0.99954
658.49017 0.99965
657.06177 0.99975
655.63337 0.99985
654.20498 0.99993
652.77658 0.99998
651.34819 0.99997
649.91979 0.99992
648.49140 0.99984
647.06300 0.99974
645.63461 0.99967
644.20621 0.99962
642.77782 0.99959
641.34942 0.99957
639.92103 0.99953
638.49263 0.99947
637.06424 0.99940
635.63584 0.99934
634.20745 0.99933
632.77905 0.99935
631.35066 0.99940
629.92226 0.99943
628.49387 0.99942
627.06547 0.99937
625.63708 0.99928
624.20868 0.99918
622.78029 0.99910
621.35189 0.99905
619.92350 0.99902
618.49510 0.99900
617.06671 0.99901
615.63831 0.99906
614.20992 0.99917
612.78152 0.99935
611.35313 0.99958
609.92473 0.99981
608.49633 0.99996
607.06794 1.00000
605.63954 0.99990
604.21115 0.99968
602.78275 0.99940
601.35436 0.99911
599.92596 0.99884
598.49757 0.99863
597.06917 0.99846
595.64078 0.99833
594.21238 0.99822
592.78399 0.99814
591.35559 0.99807
589.92720 0.99799
588.49880 0.99789
587.07041 0.99776
585.64201 0.99762
584.21362 0.99752
582.78522 0.99751
581.35683 0.99764
579.92843 0.99792
578.50004 0.99830
577.07164 0.99875
575.64325 0.99918
574.21485 0.99954
572.78646 0.99980
571.35806 0.99991
569.92967 0.99987
568.50127 0.99968
567.07288 0.99938
565.64448 0.99902
564.21609 0.99869
562.78769 0.99843
561.35929 0.99830
559.93090 0.99831
558.50250 0.99843
557.07411 0.99862
555.64571 0.99883
554.21732 0.99898
552.78892 0.99904
551.36053 0.99898
549.93213 0.99883
548.50374 0.99861
547.07534 0.99837
545.64695 0.99816
544.21855 0.99802
542.79016 0.99798
541.36176 0.99804
539.93337 0.99822
538.50497 0.99851
537.07658 0.99887
535.64818 0.99924
534.21979 0.99955
532.79139 0.99973
531.36300 0.99976
529.93460 0.99964
528.50621 0.99939
527.07781 0.99908
525.64942 0.99874
524.22102 0.99837
522.79263 0.99795
521.36423 0.99753
519.93584 0.99720
518.50744 0.99705
517.07905 0.99713
515.65065 0.99741
514.22225 0.99779
512.79386 0.99819
511.36546 0.99855
509.93707 0.99884
508.50867 0.99909
507.08028 0.99929
505.65188 0.99937
504.22349 0.99930
502.79509 0.99905
501.36670 0.99866
499.93830 0.99822
498.50991 0.99785
497.08151 0.99762
495.65312 0.99755
494.22472 0.99763
492.79633 0.99781
491.36793 0.99804
489.93954 0.99829
488.51114 0.99853
487.08275 0.99875
485.65435 0.99893
484.22596 0.99899
482.79756 0.99889
481.36917 0.99861
479.94077 0.99818
478.51238 0.99769
477.08398 0.99723
475.65559 0.99688
474.22719 0.99667
472.79880 0.99662
471.37040 0.99666
469.94201 0.99675
468.51361 0.99686
467.08521 0.99701
465.65682 0.99728
464.22842 0.99774
462.80003 0.99835
461.37163 0.99901
459.94324 0.99956
458.51484 0.99983
457.08645 0.99975
455.65805 0.99937
454.22966 0.99879
452.80126 0.99814
451.37287 0.99747
449.94447 0.99681
448.51608 0.99614
447.08768 0.99549
445.65929 0.99492
444.23089 0.99456
442.80250 0.99456
441.37410 0.99502
439.94571 0.99591
438.51731 0.99706
437.08892 0.99820
435.66052 0.99906
434.23213 0.99946
432.80373 0.99933
431.37534 0.99872
429.94694 0.99776
428.51855 0.99659
427.09015 0.99534
425.66176 0.99413
424.23336 0.99313
422.80497 0.99248
421.37657 0.99231
419.94817 0.99266
418.51978 0.99348
417.09138 0.99463
415.66299 0.99602
414.23459 0.99735
412.80620 0.99840
411.37780 0.99912
409.94941 0.99953
408.52101 0.99971
407.09262 0.99974
405.66422 0.99972
404.23583 0.99972
402.80743 0.99972
401.37904 0.99972
399.95064 0.99972
