3998.07803 1.00003
3996.64964 1.00003
3995.22124 1.00004
3993.79285 1.00005
3992.36445 1.00005
3990.93605 1.00006
3989.50766 1.00006
3988.07926 1.00007
3986.65087 1.00008
3985.22247 1.00007
3983.79408 1.00006
3982.36568 1.00004
3980.93729 1.00002
3979.50889 1.00000
3978.08050 0.99998
3976.65210 0.99997
3975.22371 0.99996
3973.79531 0.99995
3972.36692 0.99994
3970.93852 0.99995
3969.51013 0.99995
3968.08173 0.99996
3966.65334 0.99998
3965.22494 0.99999
3963.79655 1.00000
3962.36815 1.00000
3960.93976 1.00000
3959.51136 1.00000
3958.08297 0.99999
3956.65457 0.99998
3955.22618 0.99996
3953.79778 0.99994
3952.36939 0.99992
3950.94099 0.99989
3949.51260 0.99987
3948.08420 0.99986
3946.65581 0.99985
3945.22741 0.99985
3943.79901 0.99986
3942.37062 0.99987
3940.94222 0.99989
3939.51383 0.99992
3938.08543 0.99994
3936.65704 0.99996
3935.22864 0.99998
3933.80025 1.00000
3932.37185 1.00001
3930.94346 1.00002
3929.51506 1.00002
3928.08667 1.00002
3926.65827 1.00002
3925.22988 1.00002
3923.80148 1.00001
3922.37309 1.00001
3920.94469 1.00001
3919.51630 1.00001
3918.08790 1.00001
3916.65951 1.00001
3915.23111 1.00000
3913.80272 1.00000
3912.37432 0.99999
3910.94593 0.99998
3909.51753 0.99997
3908.08914 0.99995
3906.66074 0.99993
3905.23235 0.99991
3903.80395 0.99988
3902.37556 0.99986
3900.94716 0.99983
3899.51877 0.99981
3898.09037 0.99979
3896.66197 0.99977
3895.23358 0.99976
3893.80518 0.99975
3892.37679 0.99975
3890.94839 0.99975
3889.52000 0.99975
3888.09160 0.99975
3886.66321 0.99975
3885.23481 0.99976
3883.80642 0.99977
3882.37802 0.99978
3880.94963 0.99978
3879.52123 0.99979
3878.09284 0.99979
3876.66444 0.99979
3875.23605 0.99980
3873.80765 0.99981
3872.37926 0.99982
3870.95086 0.99983
3869.52247 0.99984
3868.09407 0.99984
3866.66568 0.99984
3865.23728 0.99983
3863.80889 0.99982
3862.38049 0.99981
3860.95210 0.99979
3859.52370 0.99976
3858.09531 0.99972
3856.66691 0.99967
3855.23852 0.99962
3853.81012 0.99957
3852.38173 0.99953
3850.95333 0.99950
3849.52493 0.99949
3848.09654 0.99949
3846.66814 0.99950
3845.23975 0.99953
3843.81135 0.99956
3842.38296 0.99960
3840.95456 0.99963
3839.52617 0.99966
3838.09777 0.99969
3836.66938 0.99970
3835.24098 0.99970
3833.81259 0.99969
3832.38419 0.99967
3830.95580 0.99966
3829.52740 0.99965
3828.09901 0.99965
3826.67061 0.99966
3825.24222 0.99967
3823.81382 0.99969
3822.38543 0.99971
3820.95703 0.99972
3819.52864 0.99973
3818.10024 0.99973
3816.67185 0.99972
3815.24345 0.99969
3813.81506 0.99966
3812.38666 0.99962
3810.95827 0.99957
3809.52987 0.99953
3808.10148 0.99949
3806.67308 0.99945
3805.24469 0.99942
3803.81629 0.99940
3802.38789 0.99939
3800.95950 0.99938
3799.53110 0.99939
3798.10271 0.99940
3796.67431 0.99942
3795.24592 0.99943
3793.81752 0.99944
3792.38913 0.99945
3790.96073 0.99945
3789.53234 0.99944
3788.10394 0.99944
3786.67555 0.99944
3785.24715 0.99943
3783.81876 0.99943
3782.39036 0.99943
3780.96197 0.99943
3779.53357 0.99943
3778.10518 0.99943
3776.67678 0.99943
3775.24839 0.99942
3773.81999 0.99940
3772.39160 0.99936
3770.96320 0.99932
3769.53481 0.99927
3768.10641 0.99921
3766.67802 0.99916
3765.24962 0.99911
3763.82123 0.99906
3762.39283 0.99902
3760.96444 0.99900
3759.53604 0.99899
3758.10765 0.99898
3756.67925 0.99899
3755.25085 0.99900
3753.82246 0.99901
3752.39406 0.99902
3750.96567 0.99902
3749.53727 0.99903
3748.10888 0.99903
3746.68048 0.99903
3745.25209 0.99901
3743.82369 0.99899
3742.39530 0.99895
3740.96690 0.99890
3739.53851 0.99884
3738.11011 0.99876
3736.68172 0.99867
3735.25332 0.99857
3733.82493 0.99846
3732.39653 0.99836
3730.96814 0.99826
3729.53974 0.99818
3728.11135 0.99812
3726.68295 0.99809
3725.25456 0.99808
3723.82616 0.99811
3722.39777 0.99817
3720.96937 0.99825
3719.54098 0.99834
3718.11258 0.99844
3716.68419 0.99853
3715.25579 0.99861
3713.82740 0.99867
3712.39900 0.99870
3710.97061 0.99872
3709.54221 0.99871
3708.11381 0.99868
3706.68542 0.99864
3705.25702 0.99859
3703.82863 0.99854
3702.40023 0.99849
3700.97184 0.99846
3699.54344 0.99845
3698.11505 0.99845
3696.68665 0.99847
3695.25826 0.99852
3693.82986 0.99858
3692.40147 0.99866
3690.97307 0.99874
3689.54468 0.99883
3688.11628 0.99890
3686.68789 0.99897
3685.25949 0.99903
3683.83110 0.99909
3682.40270 0.99914
3680.97431 0.99918
3679.54591 0.99922
3678.11752 0.99927
3676.68912 0.99932
3675.26073 0.99937
3673.83233 0.99944
3672.40394 0.99951
3670.97554 0.99959
3669.54715 0.99966
3668.11875 0.99972
3666.69036 0.99977
3665.26196 0.99980
3663.83357 0.99984
3662.40517 0.99986
3660.97677 0.99988
3659.54838 0.99990
3658.11998 0.99991
3656.69159 0.99992
3655.26319 0.99993
3653.83480 0.99994
3652.40640 0.99996
3650.97801 0.99998
3649.54961 0.99999
3648.12122 1.00000
3646.69282 1.00000
3645.26443 1.00000
3643.83603 0.99999
3642.40764 0.99999
3640.97924 0.99999
3639.55085 0.99998
3638.12245 0.99998
3636.69406 0.99998
3635.26566 0.99997
3633.83727 0.99997
3632.40887 0.99997
3630.98048 0.99996
3629.55208 0.99996
3628.12369 0.99995
3626.69529 0.99993
3625.26690 0.99990
3623.83850 0.99986
3622.41011 0.99982
3620.98171 0.99978
3619.55332 0.99974
3618.12492 0.99971
3616.69653 0.99969
3615.26813 0.99968
3613.83973 0.99968
3612.41134 0.99968
3610.98294 0.99969
3609.55455 0.99969
3608.12615 0.99970
3606.69776 0.99970
3605.26936 0.99970
3603.84097 0.99969
3602.41257 0.99967
3600.98418 0.99963
3599.55578 0.99958
3598.12739 0.99953
3596.69899 0.99948
3595.27060 0.99943
3593.84220 0.99939
3592.41381 0.99936
3590.98541 0.99933
3589.55702 0.99931
3588.12862 0.99930
3586.70023 0.99931
3585.27183 0.99934
3583.84344 0.99937
3582.41504 0.99941
3580.98665 0.99945
3579.55825 0.99947
3578.12986 0.99949
3576.70146 0.99950
3575.27307 0.99950
3573.84467 0.99948
3572.41628 0.99946
3570.98788 0.99942
3569.55949 0.99937
3568.13109 0.99932
3566.70269 0.99926
3565.27430 0.99921
3563.84590 0.99917
3562.41751 0.99914
3560.98911 0.99912
3559.56072 0.99911
3558.13232 0.99912
3556.70393 0.99914
3555.27553 0.99917
3553.84714 0.99919
3552.41874 0.99922
3550.99035 0.99924
3549.56195 0.99925
3548.13356 0.99926
3546.70516 0.99926
3545.27677 0.99925
3543.84837 0.99922
3542.41998 0.99919
3540.99158 0.99915
3539.56319 0.99910
3538.13479 0.99907
3536.70640 0.99904
3535.27800 0.99903
3533.84961 0.99901
3532.42121 0.99900
3530.99282 0.99899
3529.56442 0.99898
3528.13603 0.99898
3526.70763 0.99899
3525.27924 0.99901
3523.85084 0.99902
3522.42245 0.99903
3520.99405 0.99903
3519.56565 0.99901
3518.13726 0.99900
3516.70886 0.99898
3515.28047 0.99896
3513.85207 0.99895
3512.42368 0.99893
3510.99528 0.99890
3509.56689 0.99888
3508.13849 0.99887
3506.71010 0.99887
3505.28170 0.99889
3503.85331 0.99893
3502.42491 0.99897
3500.99652 0.99902
3499.56812 0.99907
3498.13973 0.99911
3496.71133 0.99915
3495.28294 0.99919
3493.85454 0.99921
3492.42615 0.99923
3490.99775 0.99923
3489.56936 0.99923
3488.14096 0.99923
3486.71257 0.99922
3485.28417 0.99922
3483.85578 0.99922
3482.42738 0.99923
3480.99899 0.99924
3479.57059 0.99926
3478.14220 0.99927
3476.71380 0.99928
3475.28541 0.99929
3473.85701 0.99929
3472.42861 0.99929
3471.00022 0.99928
3469.57182 0.99927
3468.14343 0.99926
3466.71503 0.99924
3465.28664 0.99922
3463.85824 0.99919
3462.42985 0.99916
3461.00145 0.99913
3459.57306 0.99911
3458.14466 0.99909
3456.71627 0.99908
3455.28787 0.99909
3453.85948 0.99910
3452.43108 0.99914
3451.00269 0.99918
3449.57429 0.99924
3448.14590 0.99930
3446.71750 0.99937
3445.28911 0.99943
3443.86071 0.99948
3442.43232 0.99952
3441.00392 0.99956
3439.57553 0.99959
3438.14713 0.99963
3436.71874 0.99965
3435.29034 0.99968
3433.86195 0.99970
3432.43355 0.99973
3431.00516 0.99976
3429.57676 0.99980
3428.14837 0.99984
3426.71997 0.99989
3425.29157 0.99992
3423.86318 0.99995
3422.43478 0.99997
3421.00639 0.99999
3419.57799 1.00000
3418.14960 1.00000
3416.72120 1.00001
3415.29281 1.00000
3413.86441 0.99999
3412.43602 0.99997
3411.00762 0.99995
3409.57923 0.99992
3408.15083 0.99990
3406.72244 0.99988
3405.29404 0.99987
3403.86565 0.99985
3402.43725 0.99984
3401.00886 0.99984
3399.58046 0.99984
3398.15207 0.99986
3396.72367 0.99987
3395.29528 0.99990
3393.86688 0.99993
3392.43849 0.99996
3391.01009 0.99998
3389.58170 0.99999
3388.15330 1.00000
3386.72491 1.00000
3385.29651 1.00000
3383.86812 0.99999
3382.43972 0.99998
3381.01133 0.99998
3379.58293 0.99997
3378.15453 0.99997
3376.72614 0.99997
3375.29774 0.99997
3373.86935 0.99998
3372.44095 0.99999
3371.01256 1.00000
3369.58416 1.00001
3368.15577 1.00000
3366.72737 1.00000
3365.29898 0.99999
3363.87058 0.99998
3362.44219 0.99997
3361.01379 0.99995
3359.58540 0.99994
3358.15700 0.99992
3356.72861 0.99990
3355.30021 0.99988
3353.87182 0.99985
3352.44342 0.99981
3351.01503 0.99978
3349.58663 0.99974
3348.15824 0.99970
3346.72984 0.99967
3345.30145 0.99963
3343.87305 0.99960
3342.44466 0.99957
3341.01626 0.99956
3339.58787 0.99956
3338.15947 0.99957
3336.73108 0.99958
3335.30268 0.99959
3333.87428 0.99960
3332.44589 0.99960
3331.01749 0.99959
3329.58910 0.99956
3328.16070 0.99952
3326.73231 0.99947
3325.30391 0.99942
3323.87552 0.99936
3322.44712 0.99930
3321.01873 0.99924
3319.59033 0.99919
3318.16194 0.99916
3316.73354 0.99915
3315.30515 0.99915
3313.87675 0.99916
3312.44836 0.99918
3311.01996 0.99920
3309.59157 0.99921
3308.16317 0.99922
3306.73478 0.99921
3305.30638 0.99920
3303.87799 0.99918
3302.44959 0.99916
3301.02120 0.99914
3299.59280 0.99911
3298.16441 0.99910
3296.73601 0.99909
3295.30762 0.99909
3293.87922 0.99909
3292.45083 0.99910
3291.02243 0.99910
3289.59404 0.99910
3288.16564 0.99911
3286.73724 0.99911
3285.30885 0.99912
3283.88045 0.99913
3282.45206 0.99914
3281.02366 0.99917
3279.59527 0.99921
3278.16687 0.99924
3276.73848 0.99927
3275.31008 0.99929
3273.88169 0.99929
3272.45329 0.99927
3271.02490 0.99922
3269.59650 0.99917
3268.16811 0.99910
3266.73971 0.99905
3265.31132 0.99902
3263.88292 0.99901
3262.45453 0.99903
3261.02613 0.99908
3259.59774 0.99915
3258.16934 0.99925
3256.74095 0.99936
3255.31255 0.99946
3253.88416 0.99956
3252.45576 0.99964
3251.02737 0.99970
3249.59897 0.99973
3248.17058 0.99976
3246.74218 0.99978
3245.31379 0.99981
3243.88539 0.99984
3242.45700 0.99987
3241.02860 0.99991
3239.60020 0.99994
3238.17181 0.99997
3236.74341 0.99999
3235.31502 1.00000
3233.88662 1.00001
3232.45823 1.00001
3231.02983 1.00000
3229.60144 0.99999
3228.17304 0.99998
3226.74465 0.99997
3225.31625 0.99997
3223.88786 0.99998
3222.45946 0.99999
3221.03107 1.00000
3219.60267 1.00000
3218.17428 1.00000
3216.74588 0.99998
3215.31749 0.99997
3213.88909 0.99995
3212.46070 0.99994
3211.03230 0.99993
3209.60391 0.99994
3208.17551 0.99995
3206.74712 0.99996
3205.31872 0.99997
3203.89033 0.99997
3202.46193 0.99997
3201.03354 0.99997
3199.60514 0.99995
3198.17675 0.99991
3196.74835 0.99986
3195.31996 0.99980
3193.89156 0.99974
3192.46316 0.99968
3191.03477 0.99964
3189.60637 0.99961
3188.17798 0.99959
3186.74958 0.99957
3185.32119 0.99957
3183.89279 0.99955
3182.46440 0.99954
3181.03600 0.99952
3179.60761 0.99949
3178.17921 0.99945
3176.75082 0.99940
3175.32242 0.99935
3173.89403 0.99929
3172.46563 0.99923
3171.03724 0.99917
3169.60884 0.99912
3168.18045 0.99908
3166.75205 0.99905
3165.32366 0.99902
3163.89526 0.99901
3162.46687 0.99899
3161.03847 0.99897
3159.61008 0.99896
3158.18168 0.99895
3156.75329 0.99894
3155.32489 0.99894
3153.89650 0.99895
3152.46810 0.99896
3151.03971 0.99897
3149.61131 0.99897
3148.18292 0.99897
3146.75452 0.99898
3145.32612 0.99897
3143.89773 0.99896
3142.46933 0.99895
3141.04094 0.99892
3139.61254 0.99889
3138.18415 0.99886
3136.75575 0.99882
3135.32736 0.99879
3133.89896 0.99876
3132.47057 0.99874
3131.04217 0.99872
3129.61378 0.99871
3128.18538 0.99869
3126.75699 0.99867
3125.32859 0.99864
3123.90020 0.99861
3122.47180 0.99857
3121.04341 0.99852
3119.61501 0.99848
3118.18662 0.99843
3116.75822 0.99838
3115.32983 0.99834
3113.90143 0.99830
3112.47304 0.99826
3111.04464 0.99824
3109.61625 0.99822
3108.18785 0.99822
3106.75946 0.99822
3105.33106 0.99823
3103.90267 0.99823
3102.47427 0.99824
3101.04588 0.99825
3099.61748 0.99825
3098.18908 0.99826
3096.76069 0.99827
3095.33229 0.99827
3093.90390 0.99828
3092.47550 0.99829
3091.04711 0.99829
3089.61871 0.99829
3088.19032 0.99829
3086.76192 0.99830
3085.33353 0.99830
3083.90513 0.99830
3082.47674 0.99829
3081.04834 0.99828
3079.61995 0.99827
3078.19155 0.99826
3076.76316 0.99825
3075.33476 0.99825
3073.90637 0.99825
3072.47797 0.99827
3071.04958 0.99829
3069.62118 0.99833
3068.19279 0.99837
3066.76439 0.99843
3065.33600 0.99848
3063.90760 0.99854
3062.47921 0.99860
3061.05081 0.99865
3059.62242 0.99870
3058.19402 0.99875
3056.76563 0.99879
3055.33723 0.99882
3053.90884 0.99885
3052.48044 0.99888
3051.05204 0.99890
3049.62365 0.99892
3048.19525 0.99894
3046.76686 0.99896
3045.33846 0.99897
3043.91007 0.99898
3042.48167 0.99898
3041.05328 0.99898
3039.62488 0.99898
3038.19649 0.99897
3036.76809 0.99897
3035.33970 0.99897
3033.91130 0.99897
3032.48291 0.99897
3031.05451 0.99898
3029.62612 0.99899
3028.19772 0.99900
3026.76933 0.99901
3025.34093 0.99903
3023.91254 0.99905
3022.48414 0.99906
3021.05575 0.99907
3019.62735 0.99909
3018.19896 0.99910
3016.77056 0.99910
3015.34217 0.99911
3013.91377 0.99911
3012.48538 0.99911
3011.05698 0.99911
3009.62859 0.99910
3008.20019 0.99909
3006.77180 0.99907
3005.34340 0.99906
3003.91500 0.99904
3002.48661 0.99901
3001.05821 0.99899
2999.62982 0.99896
2998.20142 0.99893
2996.77303 0.99889
2995.34463 0.99885
2993.91624 0.99881
2992.48784 0.99875
2991.05945 0.99868
2989.63105 0.99860
2988.20266 0.99850
2986.77426 0.99839
2985.34587 0.99827
2983.91747 0.99814
2982.48908 0.99800
2981.06068 0.99785
2979.63229 0.99768
2978.20389 0.99750
2976.77550 0.99732
2975.34710 0.99713
2973.91871 0.99694
2972.49031 0.99675
2971.06192 0.99655
2969.63352 0.99634
2968.20513 0.99614
2966.77673 0.99595
2965.34834 0.99575
2963.91994 0.99556
2962.49155 0.99538
2961.06315 0.99520
2959.63476 0.99502
2958.20636 0.99485
2956.77796 0.99467
2955.34957 0.99451
2953.92117 0.99436
2952.49278 0.99421
2951.06438 0.99409
2949.63599 0.99397
2948.20759 0.99388
2946.77920 0.99382
2945.35080 0.99378
2943.92241 0.99378
2942.49401 0.99380
2941.06562 0.99384
2939.63722 0.99391
2938.20883 0.99400
2936.78043 0.99410
2935.35204 0.99421
2933.92364 0.99432
2932.49525 0.99444
2931.06685 0.99456
2929.63846 0.99468
2928.21006 0.99479
2926.78167 0.99489
2925.35327 0.99498
2923.92488 0.99507
2922.49648 0.99516
2921.06809 0.99523
2919.63969 0.99530
2918.21130 0.99536
2916.78290 0.99542
2915.35451 0.99546
2913.92611 0.99550
2912.49772 0.99552
2911.06932 0.99554
2909.64092 0.99554
2908.21253 0.99554
2906.78413 0.99554
2905.35574 0.99552
2903.92734 0.99550
2902.49895 0.99549
2901.07055 0.99547
2899.64216 0.99545
2898.21376 0.99544
2896.78537 0.99543
2895.35697 0.99543
2893.92858 0.99543
2892.50018 0.99545
2891.07179 0.99547
2889.64339 0.99551
2888.21500 0.99556
2886.78660 0.99562
2885.35821 0.99570
2883.92981 0.99578
2882.50142 0.99587
2881.07302 0.99598
2879.64463 0.99608
2878.21623 0.99618
2876.78784 0.99628
2875.35944 0.99637
2873.93105 0.99645
2872.50265 0.99653
2871.07426 0.99659
2869.64586 0.99665
2868.21747 0.99671
2866.78907 0.99676
2865.36068 0.99682
2863.93228 0.99687
2862.50388 0.99693
2861.07549 0.99699
2859.64709 0.99706
2858.21870 0.99713
2856.79030 0.99720
2855.36191 0.99727
2853.93351 0.99733
2852.50512 0.99740
2851.07672 0.99746
2849.64833 0.99751
2848.21993 0.99757
2846.79154 0.99762
2845.36314 0.99766
2843.93475 0.99770
2842.50635 0.99774
2841.07796 0.99778
2839.64956 0.99782
2838.22117 0.99787
2836.79277 0.99792
2835.36438 0.99797
2833.93598 0.99803
2832.50759 0.99810
2831.07919 0.99817
2829.65080 0.99824
2828.22240 0.99832
2826.79401 0.99839
2825.36561 0.99846
2823.93722 0.99852
2822.50882 0.99858
2821.08043 0.99862
2819.65203 0.99866
2818.22364 0.99869
2816.79524 0.99871
2815.36684 0.99873
2813.93845 0.99876
2812.51005 0.99879
2811.08166 0.99882
2809.65326 0.99886
2808.22487 0.99889
2806.79647 0.99894
2805.36808 0.99898
2803.93968 0.99902
2802.51129 0.99906
2801.08289 0.99910
2799.65450 0.99914
2798.22610 0.99917
2796.79771 0.99920
2795.36931 0.99922
2793.94092 0.99925
2792.51252 0.99927
2791.08413 0.99930
2789.65573 0.99933
2788.22734 0.99936
2786.79894 0.99940
2785.37055 0.99943
2783.94215 0.99947
2782.51376 0.99950
2781.08536 0.99953
2779.65697 0.99955
2778.22857 0.99956
2776.80018 0.99957
2775.37178 0.99957
2773.94339 0.99956
2772.51499 0.99956
2771.08660 0.99955
2769.65820 0.99954
2768.22980 0.99954
2766.80141 0.99955
2765.37301 0.99957
2763.94462 0.99959
2762.51622 0.99962
2761.08783 0.99965
2759.65943 0.99968
2758.23104 0.99971
2756.80264 0.99972
2755.37425 0.99973
2753.94585 0.99973
2752.51746 0.99972
2751.08906 0.99971
2749.66067 0.99969
2748.23227 0.99967
2746.80388 0.99965
2745.37548 0.99963
2743.94709 0.99961
2742.51869 0.99960
2741.09030 0.99960
2739.66190 0.99960
2738.23351 0.99962
2736.80511 0.99964
2735.37672 0.99966
2733.94832 0.99969
2732.51993 0.99972
2731.09153 0.99975
2729.66314 0.99978
2728.23474 0.99981
2726.80635 0.99983
2725.37795 0.99985
2723.94956 0.99986
2722.52116 0.99986
2721.09276 0.99985
2719.66437 0.99985
2718.23597 0.99984
2716.80758 0.99983
2715.37918 0.99982
2713.95079 0.99981
2712.52239 0.99980
2711.09400 0.99980
2709.66560 0.99979
2708.23721 0.99979
2706.80881 0.99979
2705.38042 0.99979
2703.95202 0.99980
2702.52363 0.99981
2701.09523 0.99982
2699.66684 0.99984
2698.23844 0.99985
2696.81005 0.99986
2695.38165 0.99987
2693.95326 0.99987
2692.52486 0.99987
2691.09647 0.99986
2689.66807 0.99984
2688.23968 0.99982
2686.81128 0.99979
2685.38289 0.99977
2683.95449 0.99974
2682.52610 0.99972
2681.09770 0.99970
2679.66931 0.99968
2678.24091 0.99966
2676.81252 0.99965
2675.38412 0.99964
2673.95572 0.99964
2672.52733 0.99964
2671.09893 0.99965
2669.67054 0.99966
2668.24214 0.99968
2666.81375 0.99969
2665.38535 0.99971
2663.95696 0.99973
2662.52856 0.99975
2661.10017 0.99977
2659.67177 0.99978
2658.24338 0.99979
2656.81498 0.99979
2655.38659 0.99979
2653.95819 0.99979
2652.52980 0.99979
2651.10140 0.99980
2649.67301 0.99981
2648.24461 0.99982
2646.81622 0.99984
2645.38782 0.99985
2643.95943 0.99986
2642.53103 0.99987
2641.10264 0.99987
2639.67424 0.99987
2638.24585 0.99986
2636.81745 0.99984
2635.38906 0.99982
2633.96066 0.99979
2632.53227 0.99977
2631.10387 0.99976
2629.67548 0.99976
2628.24708 0.99976
2626.81868 0.99978
2625.39029 0.99980
2623.96189 0.99982
2622.53350 0.99985
2621.10510 0.99988
2619.67671 0.99990
2618.24831 0.99992
2616.81992 0.99994
2615.39152 0.99995
2613.96313 0.99996
2612.53473 0.99997
2611.10634 0.99998
2609.67794 0.99999
2608.24955 1.00000
2606.82115 1.00000
2605.39276 1.00000
2603.96436 1.00000
2602.53597 0.99999
2601.10757 0.99997
2599.67918 0.99995
2598.25078 0.99993
2596.82239 0.99990
2595.39399 0.99988
2593.96560 0.99987
2592.53720 0.99986
2591.10881 0.99987
2589.68041 0.99988
2588.25202 0.99990
2586.82362 0.99992
2585.39523 0.99994
2583.96683 0.99995
2582.53843 0.99995
2581.11004 0.99995
2579.68164 0.99994
2578.25325 0.99993
2576.82485 0.99992
2575.39646 0.99991
2573.96806 0.99991
2572.53967 0.99992
2571.11127 0.99993
2569.68288 0.99995
2568.25448 0.99997
2566.82609 0.99999
2565.39769 1.00000
2563.96930 1.00000
2562.54090 1.00000
2561.11251 0.99998
2559.68411 0.99995
2558.25572 0.99990
2556.82732 0.99984
2555.39893 0.99978
2553.97053 0.99971
2552.54214 0.99965
2551.11374 0.99961
2549.68535 0.99957
2548.25695 0.99955
2546.82856 0.99955
2545.40016 0.99957
2543.97177 0.99959
2542.54337 0.99963
2541.11498 0.99967
2539.68658 0.99972
2538.25819 0.99977
2536.82979 0.99982
2535.40139 0.99986
2533.97300 0.99988
2532.54460 0.99990
2531.11621 0.99990
2529.68781 0.99990
2528.25942 0.99989
2526.83102 0.99987
2525.40263 0.99985
2523.97423 0.99983
2522.54584 0.99981
2521.11744 0.99980
2519.68905 0.99980
2518.26065 0.99981
2516.83226 0.99983
2515.40386 0.99985
2513.97547 0.99988
2512.54707 0.99990
2511.11868 0.99992
2509.69028 0.99994
2508.26189 0.99995
2506.83349 0.99996
2505.40510 0.99996
2503.97670 0.99995
2502.54831 0.99994
2501.11991 0.99992
2499.69152 0.99990
2498.26312 0.99989
2496.83473 0.99987
2495.40633 0.99986
2493.97794 0.99984
2492.54954 0.99983
2491.12115 0.99981
2489.69275 0.99980
2488.26435 0.99978
2486.83596 0.99977
2485.40756 0.99977
2483.97917 0.99978
2482.55077 0.99979
2481.12238 0.99981
2479.69398 0.99984
2478.26559 0.99986
2476.83719 0.99988
2475.40880 0.99990
2473.98040 0.99992
2472.55201 0.99992
2471.12361 0.99992
2469.69522 0.99991
2468.26682 0.99990
2466.83843 0.99989
2465.41003 0.99988
2463.98164 0.99987
2462.55324 0.99987
2461.12485 0.99987
2459.69645 0.99987
2458.26806 0.99987
2456.83966 0.99987
2455.41127 0.99987
2453.98287 0.99987
2452.55448 0.99988
2451.12608 0.99988
2449.69769 0.99989
2448.26929 0.99991
2446.84090 0.99993
2445.41250 0.99995
2443.98411 0.99997
2442.55571 0.99999
2441.12731 1.00000
2439.69892 1.00000
2438.27052 1.00000
2436.84213 0.99998
2435.41373 0.99995
2433.98534 0.99992
2432.55694 0.99988
2431.12855 0.99983
2429.70015 0.99979
2428.27176 0.99976
2426.84336 0.99973
2425.41497 0.99971
2423.98657 0.99971
2422.55818 0.99972
2421.12978 0.99974
2419.70139 0.99978
2418.27299 0.99982
2416.84460 0.99987
2415.41620 0.99991
2413.98781 0.99995
2412.55941 0.99998
2411.13102 0.99999
2409.70262 1.00000
2408.27423 1.00000
2406.84583 0.99998
2405.41744 0.99996
2403.98904 0.99994
2402.56065 0.99991
2401.13225 0.99989
2399.70386 0.99987
2398.27546 0.99985
2396.84707 0.99984
2395.41867 0.99984
2393.99027 0.99983
2392.56188 0.99983
2391.13348 0.99983
2389.70509 0.99983
2388.27669 0.99983
2386.84830 0.99983
2385.41990 0.99983
2383.99151 0.99982
2382.56311 0.99982
2381.13472 0.99982
2379.70632 0.99981
2378.27793 0.99981
2376.84953 0.99981
2375.42114 0.99981
2373.99274 0.99980
2372.56435 0.99980
2371.13595 0.99980
2369.70756 0.99979
2368.27916 0.99979
2366.85077 0.99979
2365.42237 0.99978
2363.99398 0.99978
2362.56558 0.99978
2361.13719 0.99977
2359.70879 0.99977
2358.28040 0.99976
2356.85200 0.99976
2355.42361 0.99976
2353.99521 0.99975
2352.56682 0.99975
2351.13842 0.99974
2349.71003 0.99974
2348.28163 0.99974
2346.85323 0.99973
2345.42484 0.99973
2343.99644 0.99972
2342.56805 0.99972
2341.13965 0.99971
2339.71126 0.99971
2338.28286 0.99971
2336.85447 0.99970
2335.42607 0.99970
2333.99768 0.99969
2332.56928 0.99969
2331.14089 0.99968
2329.71249 0.99968
2328.28410 0.99967
2326.85570 0.99967
2325.42731 0.99966
2323.99891 0.99966
2322.57052 0.99965
2321.14212 0.99965
2319.71373 0.99964
2318.28533 0.99964
2316.85694 0.99963
2315.42854 0.99963
2314.00015 0.99962
2312.57175 0.99962
2311.14336 0.99961
2309.71496 0.99961
2308.28657 0.99960
2306.85817 0.99959
2305.42978 0.99959
2304.00138 0.99958
2302.57299 0.99958
2301.14459 0.99957
2299.71619 0.99956
2298.28780 0.99956
2296.85940 0.99955
2295.43101 0.99955
2294.00261 0.99954
2292.57422 0.99953
2291.14582 0.99953
2289.71743 0.99952
2288.28903 0.99952
2286.86064 0.99951
2285.43224 0.99950
2284.00385 0.99950
2282.57545 0.99949
2281.14706 0.99948
2279.71866 0.99948
2278.29027 0.99947
2276.86187 0.99946
2275.43348 0.99946
2274.00508 0.99945
2272.57669 0.99944
2271.14829 0.99944
2269.71990 0.99943
2268.29150 0.99942
2266.86311 0.99941
2265.43471 0.99941
2264.00632 0.99940
2262.57792 0.99939
2261.14953 0.99939
2259.72113 0.99938
2258.29274 0.99937
2256.86434 0.99936
2255.43595 0.99936
2254.00755 0.99935
2252.57915 0.99934
2251.15076 0.99932
2249.72236 0.99931
2248.29397 0.99930
2246.86557 0.99929
2245.43718 0.99929
2244.00878 0.99929
2242.58039 0.99931
2241.15199 0.99933
2239.72360 0.99936
2238.29520 0.99940
2236.86681 0.99943
2235.43841 0.99946
2234.01002 0.99949
2232.58162 0.99950
2231.15323 0.99951
2229.72483 0.99952
2228.29644 0.99951
2226.86804 0.99951
2225.43965 0.99952
2224.01125 0.99952
2222.58286 0.99954
2221.15446 0.99955
2219.72607 0.99956
2218.29767 0.99957
2216.86928 0.99957
2215.44088 0.99954
2214.01249 0.99950
2212.58409 0.99944
2211.15570 0.99938
2209.72730 0.99932
2208.29891 0.99927
2206.87051 0.99923
2205.44211 0.99922
2204.01372 0.99924
2202.58532 0.99929
2201.15693 0.99935
2199.72853 0.99942
2198.30014 0.99949
2196.87174 0.99955
2195.44335 0.99957
2194.01495 0.99957
2192.58656 0.99955
2191.15816 0.99950
2189.72977 0.99945
2188.30137 0.99940
2186.87298 0.99935
2185.44458 0.99932
2184.01619 0.99930
2182.58779 0.99930
2181.15940 0.99932
2179.73100 0.99936
2178.30261 0.99941
2176.87421 0.99947
2175.44582 0.99953
2174.01742 0.99958
2172.58903 0.99962
2171.16063 0.99966
2169.73224 0.99970
2168.30384 0.99974
2166.87545 0.99978
2165.44705 0.99983
2164.01866 0.99989
2162.59026 0.99994
2161.16187 0.99998
2159.73347 1.00000
2158.30507 1.00000
2156.87668 0.99998
2155.44828 0.99995
2154.01989 0.99989
2152.59149 0.99980
2151.16310 0.99970
2149.73470 0.99960
2148.30631 0.99950
2146.87791 0.99943
2145.44952 0.99938
2144.02112 0.99936
2142.59273 0.99937
2141.16433 0.99940
2139.73594 0.99945
2138.30754 0.99950
2136.87915 0.99955
2135.45075 0.99958
2134.02236 0.99960
2132.59396 0.99960
2131.16557 0.99959
2129.73717 0.99955
2128.30878 0.99951
2126.88038 0.99946
2125.45199 0.99941
2124.02359 0.99936
2122.59520 0.99931
2121.16680 0.99928
2119.73841 0.99925
2118.31001 0.99923
2116.88162 0.99921
2115.45322 0.99920
2114.02483 0.99920
2112.59643 0.99920
2111.16803 0.99922
2109.73964 0.99924
2108.31124 0.99928
2106.88285 0.99933
2105.45445 0.99938
2104.02606 0.99944
2102.59766 0.99950
2101.16927 0.99955
2099.74087 0.99959
2098.31248 0.99961
2096.88408 0.99962
2095.45569 0.99961
2094.02729 0.99959
2092.59890 0.99957
2091.17050 0.99954
2089.74211 0.99951
2088.31371 0.99948
2086.88532 0.99945
2085.45692 0.99943
2084.02853 0.99943
2082.60013 0.99944
2081.17174 0.99946
2079.74334 0.99948
2078.31495 0.99951
2076.88655 0.99952
2075.45816 0.99953
2074.02976 0.99953
2072.60137 0.99953
2071.17297 0.99953
2069.74458 0.99952
2068.31618 0.99950
2066.88779 0.99948
2065.45939 0.99947
2064.03099 0.99946
2062.60260 0.99945
2061.17420 0.99945
2059.74581 0.99945
2058.31741 0.99944
2056.88902 0.99943
2055.46062 0.99941
2054.03223 0.99937
2052.60383 0.99934
2051.17544 0.99931
2049.74704 0.99930
2048.31865 0.99931
2046.89025 0.99934
2045.46186 0.99940
2044.03346 0.99949
2042.60507 0.99959
2041.17667 0.99970
2039.74828 0.99980
2038.31988 0.99988
2036.89149 0.99994
2035.46309 0.99998
2034.03470 1.00000
2032.60630 0.99999
2031.17791 0.99996
2029.74951 0.99991
2028.32112 0.99987
2026.89272 0.99983
2025.46433 0.99979
2024.03593 0.99977
2022.60754 0.99975
2021.17914 0.99974
2019.75075 0.99972
2018.32235 0.99970
2016.89395 0.99968
2015.46556 0.99967
2014.03716 0.99967
2012.60877 0.99966
2011.18037 0.99964
2009.75198 0.99960
2008.32358 0.99955
2006.89519 0.99949
2005.46679 0.99943
2004.03840 0.99936
2002.61000 0.99930
2001.18161 0.99924
1999.75321 0.99919
1998.32482 0.99914
1996.89642 0.99911
1995.46803 0.99911
1994.03963 0.99914
1992.61124 0.99919
1991.18284 0.99925
1989.75445 0.99930
1988.32605 0.99934
1986.89766 0.99935
1985.46926 0.99936
1984.04087 0.99934
1982.61247 0.99931
1981.18408 0.99926
1979.75568 0.99920
1978.32729 0.99914
1976.89889 0.99909
1975.47050 0.99905
1974.04210 0.99902
1972.61371 0.99901
1971.18531 0.99900
1969.75691 0.99900
1968.32852 0.99900
1966.90012 0.99900
1965.47173 0.99898
1964.04333 0.99896
1962.61494 0.99893
1961.18654 0.99890
1959.75815 0.99887
1958.32975 0.99885
1956.90136 0.99885
1955.47296 0.99886
1954.04457 0.99889
1952.61617 0.99893
1951.18778 0.99896
1949.75938 0.99900
1948.33099 0.99904
1946.90259 0.99907
1945.47420 0.99911
1944.04580 0.99913
1942.61741 0.99915
1941.18901 0.99916
1939.76062 0.99916
1938.33222 0.99918
1936.90383 0.99920
1935.47543 0.99922
1934.04704 0.99924
1932.61864 0.99926
1931.19025 0.99927
1929.76185 0.99927
1928.33346 0.99925
1926.90506 0.99923
1925.47667 0.99920
1924.04827 0.99916
1922.61987 0.99913
1921.19148 0.99910
1919.76308 0.99908
1918.33469 0.99906
1916.90629 0.99906
1915.47790 0.99907
1914.04950 0.99908
1912.62111 0.99909
1911.19271 0.99910
1909.76432 0.99912
1908.33592 0.99913
1906.90753 0.99914
1905.47913 0.99914
1904.05074 0.99912
1902.62234 0.99910
1901.19395 0.99907
1899.76555 0.99905
1898.33716 0.99903
1896.90876 0.99902
1895.48037 0.99900
1894.05197 0.99898
1892.62358 0.99896
1891.19518 0.99895
1889.76679 0.99893
1888.33839 0.99892
1886.91000 0.99891
1885.48160 0.99890
1884.05321 0.99889
1882.62481 0.99887
1881.19642 0.99885
1879.76802 0.99884
1878.33963 0.99883
1876.91123 0.99884
1875.48283 0.99885
1874.05444 0.99887
1872.62604 0.99890
1871.19765 0.99894
1869.76925 0.99898
1868.34086 0.99902
1866.91246 0.99905
1865.48407 0.99908
1864.05567 0.99910
1862.62728 0.99911
1861.19888 0.99911
1859.77049 0.99909
1858.34209 0.99907
1856.91370 0.99904
1855.48530 0.99900
1854.05691 0.99895
1852.62851 0.99891
1851.20012 0.99887
1849.77172 0.99884
1848.34333 0.99881
1846.91493 0.99879
1845.48654 0.99878
1844.05814 0.99877
1842.62975 0.99876
1841.20135 0.99876
1839.77296 0.99877
1838.34456 0.99878
1836.91617 0.99878
1835.48777 0.99879
1834.05938 0.99879
1832.63098 0.99879
1831.20258 0.99880
1829.77419 0.99880
1828.34579 0.99881
1826.91740 0.99882
1825.48900 0.99882
1824.06061 0.99882
1822.63221 0.99882
1821.20382 0.99882
1819.77542 0.99881
1818.34703 0.99880
1816.91863 0.99879
1815.49024 0.99877
1814.06184 0.99876
1812.63345 0.99874
1811.20505 0.99873
1809.77666 0.99873
1808.34826 0.99873
1806.91987 0.99873
1805.49147 0.99874
1804.06308 0.99874
1802.63468 0.99874
1801.20629 0.99873
1799.77789 0.99872
1798.34950 0.99871
1796.92110 0.99869
1795.49271 0.99867
1794.06431 0.99864
1792.63592 0.99862
1791.20752 0.99859
1789.77913 0.99857
1788.35073 0.99856
1786.92234 0.99856
1785.49394 0.99856
1784.06554 0.99857
1782.63715 0.99858
1781.20875 0.99861
1779.78036 0.99864
1778.35196 0.99867
1776.92357 0.99871
1775.49517 0.99874
1774.06678 0.99876
1772.63838 0.99878
1771.20999 0.99878
1769.78159 0.99877
1768.35320 0.99875
1766.92480 0.99873
1765.49641 0.99869
1764.06801 0.99865
1762.63962 0.99861
1761.21122 0.99858
1759.78283 0.99855
1758.35443 0.99853
1756.92604 0.99852
1755.49764 0.99853
1754.06925 0.99854
1752.64085 0.99856
1751.21246 0.99858
1749.78406 0.99860
1748.35567 0.99862
1746.92727 0.99863
1745.49888 0.99863
1744.07048 0.99862
1742.64209 0.99860
1741.21369 0.99857
1739.78530 0.99854
1738.35690 0.99851
1736.92850 0.99848
1735.50011 0.99845
1734.07171 0.99843
1732.64332 0.99842
1731.21492 0.99842
1729.78653 0.99843
1728.35813 0.99844
1726.92974 0.99845
1725.50134 0.99846
1724.07295 0.99848
1722.64455 0.99849
1721.21616 0.99851
1719.78776 0.99853
1718.35937 0.99854
1716.93097 0.99855
1715.50258 0.99856
1714.07418 0.99855
1712.64579 0.99854
1711.21739 0.99853
1709.78900 0.99851
1708.36060 0.99849
1706.93221 0.99846
1705.50381 0.99842
1704.07542 0.99839
1702.64702 0.99835
1701.21863 0.99833
1699.79023 0.99831
1698.36184 0.99830
1696.93344 0.99830
1695.50505 0.99829
1694.07665 0.99829
1692.64826 0.99827
1691.21986 0.99825
1689.79146 0.99821
1688.36307 0.99817
1686.93467 0.99811
1685.50628 0.99804
1684.07788 0.99796
1682.64949 0.99786
1681.22109 0.99776
1679.79270 0.99766
1678.36430 0.99756
1676.93591 0.99746
1675.50751 0.99736
1674.07912 0.99726
1672.65072 0.99716
1671.22233 0.99705
1669.79393 0.99693
1668.36554 0.99681
1666.93714 0.99669
1665.50875 0.99656
1664.08035 0.99642
1662.65196 0.99628
1661.22356 0.99614
1659.79517 0.99603
1658.36677 0.99593
1656.93838 0.99586
1655.50998 0.99583
1654.08159 0.99583
1652.65319 0.99588
1651.22480 0.99597
1649.79640 0.99610
1648.36801 0.99626
1646.93961 0.99647
1645.51122 0.99670
1644.08282 0.99696
1642.65442 0.99722
1641.22603 0.99749
1639.79763 0.99776
1638.36924 0.99802
1636.94084 0.99828
1635.51245 0.99852
1634.08405 0.99875
1632.65566 0.99895
1631.22726 0.99913
1629.79887 0.99928
1628.37047 0.99942
1626.94208 0.99954
1625.51368 0.99964
1624.08529 0.99973
1622.65689 0.99981
1621.22850 0.99987
1619.80010 0.99991
1618.37171 0.99994
1616.94331 0.99997
1615.51492 0.99998
1614.08652 0.99999
1612.65813 1.00000
1611.22973 1.00000
1609.80134 1.00000
1608.37294 1.00000
1606.94455 0.99999
1605.51615 0.99997
1604.08776 0.99995
1602.65936 0.99992
1601.23097 0.99989
1599.80257 0.99985
1598.37418 0.99982
1596.94578 0.99979
1595.51738 0.99977
1594.08899 0.99975
1592.66059 0.99974
1591.23220 0.99973
1589.80380 0.99972
1588.37541 0.99971
1586.94701 0.99970
1585.51862 0.99967
1584.09022 0.99964
1582.66183 0.99959
1581.23343 0.99953
1579.80504 0.99945
1578.37664 0.99937
1576.94825 0.99928
1575.51985 0.99920
1574.09146 0.99911
1572.66306 0.99903
1571.23467 0.99894
1569.80627 0.99886
1568.37788 0.99878
1566.94948 0.99869
1565.52109 0.99859
1564.09269 0.99849
1562.66430 0.99838
1561.23590 0.99825
1559.80751 0.99810
1558.37911 0.99795
1556.95072 0.99780
1555.52232 0.99765
1554.09393 0.99752
1552.66553 0.99740
1551.23714 0.99731
1549.80874 0.99724
1548.38034 0.99719
1546.95195 0.99718
1545.52355 0.99719
1544.09516 0.99723
1542.66676 0.99730
1541.23837 0.99737
1539.80997 0.99745
1538.38158 0.99754
1536.95318 0.99762
1535.52479 0.99771
1534.09639 0.99779
1532.66800 0.99786
1531.23960 0.99793
1529.81121 0.99799
1528.38281 0.99804
1526.95442 0.99808
1525.52602 0.99813
1524.09763 0.99818
1522.66923 0.99822
1521.24084 0.99826
1519.81244 0.99830
1518.38405 0.99833
1516.95565 0.99836
1515.52726 0.99838
1514.09886 0.99840
1512.67047 0.99842
1511.24207 0.99843
1509.81368 0.99843
1508.38528 0.99843
1506.95689 0.99844
1505.52849 0.99844
1504.10010 0.99845
1502.67170 0.99847
1501.24330 0.99848
1499.81491 0.99849
1498.38651 0.99850
1496.95812 0.99850
1495.52972 0.99849
1494.10133 0.99848
1492.67293 0.99845
1491.24454 0.99840
1489.81614 0.99834
1488.38775 0.99826
1486.95935 0.99815
1485.53096 0.99802
1484.10256 0.99787
1482.67417 0.99769
1481.24577 0.99747
1479.81738 0.99722
1478.38898 0.99694
1476.96059 0.99663
1475.53219 0.99629
1474.10380 0.99592
1472.67540 0.99555
1471.24701 0.99517
1469.81861 0.99481
1468.39022 0.99447
1466.96182 0.99417
1465.53343 0.99389
1464.10503 0.99366
1462.67664 0.99347
1461.24824 0.99331
1459.81985 0.99319
1458.39145 0.99309
1456.96306 0.99301
1455.53466 0.99294
1454.10626 0.99286
1452.67787 0.99276
1451.24947 0.99264
1449.82108 0.99249
1448.39268 0.99232
1446.96429 0.99212
1445.53589 0.99190
1444.10750 0.99165
1442.67910 0.99139
1441.25071 0.99112
1439.82231 0.99084
1438.39392 0.99055
1436.96552 0.99027
1435.53713 0.98999
1434.10873 0.98972
1432.68034 0.98946
1431.25194 0.98922
1429.82355 0.98898
1428.39515 0.98876
1426.96676 0.98856
1425.53836 0.98838
1424.10997 0.98822
1422.68157 0.98810
1421.25318 0.98800
1419.82478 0.98793
1418.39639 0.98789
1416.96799 0.98788
1415.53960 0.98788
1414.11120 0.98791
1412.68281 0.98794
1411.25441 0.98799
1409.82602 0.98806
1408.39762 0.98814
1406.96922 0.98824
1405.54083 0.98836
1404.11243 0.98851
1402.68404 0.98868
1401.25564 0.98888
1399.82725 0.98912
1398.39885 0.98938
1396.97046 0.98967
1395.54206 0.98997
1394.11367 0.99028
1392.68527 0.99058
1391.25688 0.99088
1389.82848 0.99116
1388.40009 0.99142
1386.97169 0.99166
1385.54330 0.99187
1384.11490 0.99207
1382.68651 0.99225
1381.25811 0.99241
1379.82972 0.99256
1378.40132 0.99270
1376.97293 0.99282
1375.54453 0.99294
1374.11614 0.99305
1372.68774 0.99315
1371.25935 0.99324
1369.83095 0.99331
1368.40256 0.99336
1366.97416 0.99341
1365.54577 0.99344
1364.11737 0.99346
1362.68898 0.99347
1361.26058 0.99348
1359.83218 0.99349
1358.40379 0.99350
1356.97539 0.99350
1355.54700 0.99351
1354.11860 0.99350
1352.69021 0.99350
1351.26181 0.99348
1349.83342 0.99346
1348.40502 0.99343
1346.97663 0.99339
1345.54823 0.99335
1344.11984 0.99329
1342.69144 0.99323
1341.26305 0.99317
1339.83465 0.99311
1338.40626 0.99305
1336.97786 0.99300
1335.54947 0.99295
1334.12107 0.99290
1332.69268 0.99286
1331.26428 0.99282
1329.83589 0.99278
1328.40749 0.99275
1326.97910 0.99271
1325.55070 0.99269
1324.12231 0.99266
1322.69391 0.99264
1321.26552 0.99263
1319.83712 0.99262
1318.40873 0.99261
1316.98033 0.99260
1315.55194 0.99260
1314.12354 0.99260
1312.69514 0.99261
1311.26675 0.99262
1309.83835 0.99264
1308.40996 0.99266
1306.98156 0.99268
1305.55317 0.99271
1304.12477 0.99274
1302.69638 0.99277
1301.26798 0.99281
1299.83959 0.99286
1298.41119 0.99290
1296.98280 0.99295
1295.55440 0.99300
1294.12601 0.99305
1292.69761 0.99311
1291.26922 0.99317
1289.84082 0.99324
1288.41243 0.99331
1286.98403 0.99338
1285.55564 0.99346
1284.12724 0.99353
1282.69885 0.99360
1281.27045 0.99366
1279.84206 0.99372
1278.41366 0.99376
1276.98527 0.99378
1275.55687 0.99377
1274.12848 0.99374
1272.70008 0.99368
1271.27169 0.99358
1269.84329 0.99347
1268.41490 0.99334
1266.98650 0.99320
1265.55810 0.99306
1264.12971 0.99295
1262.70131 0.99287
1261.27292 0.99282
1259.84452 0.99282
1258.41613 0.99286
1256.98773 0.99294
1255.55934 0.99304
1254.13094 0.99316
1252.70255 0.99328
1251.27415 0.99340
1249.84576 0.99350
1248.41736 0.99358
1246.98897 0.99363
1245.56057 0.99367
1244.13218 0.99369
1242.70378 0.99369
1241.27539 0.99370
1239.84699 0.99369
1238.41860 0.99368
1236.99020 0.99367
1235.56181 0.99366
1234.13341 0.99364
1232.70502 0.99362
1231.27662 0.99359
1229.84823 0.99356
1228.41983 0.99352
1226.99144 0.99348
1225.56304 0.99344
1224.13465 0.99341
1222.70625 0.99339
1221.27786 0.99339
1219.84946 0.99340
1218.42106 0.99342
1216.99267 0.99347
1215.56427 0.99354
1214.13588 0.99363
1212.70748 0.99375
1211.27909 0.99390
1209.85069 0.99407
1208.42230 0.99426
1206.99390 0.99448
1205.56551 0.99472
1204.13711 0.99497
1202.70872 0.99525
1201.28032 0.99553
1199.85193 0.99583
1198.42353 0.99613
1196.99514 0.99643
1195.56674 0.99673
1194.13835 0.99703
1192.70995 0.99731
1191.28156 0.99759
1189.85316 0.99786
1188.42477 0.99811
1186.99637 0.99833
1185.56798 0.99853
1184.13958 0.99871
1182.71119 0.99887
1181.28279 0.99901
1179.85440 0.99914
1178.42600 0.99926
1176.99761 0.99936
1175.56921 0.99945
1174.14082 0.99954
1172.71242 0.99962
1171.28402 0.99970
1169.85563 0.99977
1168.42723 0.99984
1166.99884 0.99991
1165.57044 0.99996
1164.14205 0.99999
1162.71365 1.00000
1161.28526 1.00000
1159.85686 0.99998
1158.42847 0.99991
1157.00007 0.99981
1155.57168 0.99965
1154.14328 0.99944
1152.71489 0.99917
1151.28649 0.99884
1149.85810 0.99845
1148.42970 0.99801
1147.00131 0.99751
1145.57291 0.99699
1144.14452 0.99644
1142.71612 0.99589
1141.28773 0.99534
1139.85933 0.99482
1138.43094 0.99434
1137.00254 0.99391
1135.57415 0.99355
1134.14575 0.99325
1132.71736 0.99301
1131.28896 0.99282
1129.86057 0.99267
1128.43217 0.99254
1127.00378 0.99242
1125.57538 0.99227
1124.14698 0.99208
1122.71859 0.99183
1121.29019 0.99150
1119.86180 0.99109
1118.43340 0.99058
1117.00501 0.98996
1115.57661 0.98926
1114.14822 0.98848
1112.71982 0.98765
1111.29143 0.98677
1109.86303 0.98586
1108.43464 0.98494
1107.00624 0.98403
1105.57785 0.98312
1104.14945 0.98222
1102.72106 0.98133
1101.29266 0.98043
1099.86427 0.97953
1098.43587 0.97860
1097.00748 0.97766
1095.57908 0.97669
1094.15069 0.97571
1092.72229 0.97474
1091.29390 0.97381
1089.86550 0.97296
1088.43711 0.97223
1087.00871 0.97165
1085.58032 0.97127
1084.15192 0.97112
1082.72353 0.97121
1081.29513 0.97154
1079.86673 0.97209
1078.43834 0.97284
1077.00994 0.97375
1075.58155 0.97476
1074.15315 0.97582
1072.72476 0.97688
1071.29636 0.97788
1069.86797 0.97879
1068.43957 0.97956
1067.01118 0.98016
1065.58278 0.98059
1064.15439 0.98084
1062.72599 0.98092
1061.29760 0.98085
1059.86920 0.98066
1058.44081 0.98036
1057.01241 0.97999
1055.58402 0.97958
1054.15562 0.97917
1052.72723 0.97879
1051.29883 0.97846
1049.87044 0.97821
1048.44204 0.97803
1047.01365 0.97793
1045.58525 0.97790
1044.15686 0.97793
1042.72846 0.97801
1041.30007 0.97812
1039.87167 0.97827
1038.44328 0.97843
1037.01488 0.97859
1035.58649 0.97876
1034.15809 0.97895
1032.72969 0.97915
1031.30130 0.97938
1029.87290 0.97965
1028.44451 0.97997
1027.01611 0.98032
1025.58772 0.98072
1024.15932 0.98115
1022.73093 0.98162
1021.30253 0.98210
1019.87414 0.98260
1018.44574 0.98309
1017.01735 0.98357
1015.58895 0.98402
1014.16056 0.98446
1012.73216 0.98487
1011.30377 0.98527
1009.87537 0.98567
1008.44698 0.98608
1007.01858 0.98651
1005.59019 0.98699
1004.16179 0.98751
1002.73340 0.98810
1001.30500 0.98875
999.87661 0.98946
998.44821 0.99023
997.01982 0.99103
995.59142 0.99185
994.16303 0.99267
992.73463 0.99346
991.30624 0.99421
989.87784 0.99489
988.44945 0.99550
987.02105 0.99603
985.59265 0.99648
984.16426 0.99686
982.73586 0.99718
981.30747 0.99745
979.87907 0.99767
978.45068 0.99787
977.02228 0.99804
975.59389 0.99820
974.16549 0.99834
972.73710 0.99847
971.30870 0.99858
969.88031 0.99866
968.45191 0.99871
967.02352 0.99874
965.59512 0.99873
964.16673 0.99871
962.73833 0.99866
961.30994 0.99861
959.88154 0.99855
958.45315 0.99850
957.02475 0.99847
955.59636 0.99845
954.16796 0.99846
952.73957 0.99848
951.31117 0.99853
949.88278 0.99859
948.45438 0.99865
947.02599 0.99871
945.59759 0.99876
944.16920 0.99881
942.74080 0.99884
941.31241 0.99887
939.88401 0.99889
938.45561 0.99890
937.02722 0.99890
935.59882 0.99891
934.17043 0.99891
932.74203 0.99892
931.31364 0.99893
929.88524 0.99895
928.45685 0.99898
927.02845 0.99901
925.60006 0.99905
924.17166 0.99911
922.74327 0.99918
921.31487 0.99927
919.88648 0.99937
918.45808 0.99947
917.02969 0.99959
915.60129 0.99971
914.17290 0.99982
912.74450 0.99991
911.31611 0.99998
909.88771 1.00000
908.45932 0.99998
907.03092 0.99990
905.60253 0.99976
904.17413 0.99954
902.74574 0.99927
901.31734 0.99894
899.88895 0.99858
898.46055 0.99819
897.03216 0.99780
895.60376 0.99742
894.17537 0.99707
892.74697 0.99677
891.31857 0.99654
889.89018 0.99636
888.46178 0.99625
887.03339 0.99619
885.60499 0.99617
884.17660 0.99620
882.74820 0.99624
881.31981 0.99631
879.89141 0.99640
878.46302 0.99651
877.03462 0.99663
875.60623 0.99676
874.17783 0.99689
872.74944 0.99704
871.32104 0.99720
869.89265 0.99736
868.46425 0.99752
867.03586 0.99768
865.60746 0.99784
864.17907 0.99798
862.75067 0.99811
861.32228 0.99823
859.89388 0.99834
858.46549 0.99844
857.03709 0.99854
855.60870 0.99863
854.18030 0.99872
852.75191 0.99881
851.32351 0.99889
849.89512 0.99898
848.46672 0.99907
847.03833 0.99915
845.60993 0.99924
844.18153 0.99932
842.75314 0.99940
841.32474 0.99948
839.89635 0.99956
838.46795 0.99964
837.03956 0.99972
835.61116 0.99980
834.18277 0.99986
832.75437 0.99990
831.32598 0.99993
829.89758 0.99994
828.46919 0.99992
827.04079 0.99989
825.61240 0.99985
824.18400 0.99979
822.75561 0.99973
821.32721 0.99965
819.89882 0.99958
818.47042 0.99952
817.04203 0.99947
815.61363 0.99944
814.18524 0.99941
812.75684 0.99939
811.32845 0.99937
809.90005 0.99935
808.47166 0.99933
807.04326 0.99930
805.61487 0.99929
804.18647 0.99927
802.75808 0.99925
801.32968 0.99923
799.90129 0.99921
798.47289 0.99919
797.04449 0.99918
795.61610 0.99918
794.18770 0.99919
792.75931 0.99919
791.33091 0.99918
789.90252 0.99916
788.47412 0.99912
787.04573 0.99907
785.61733 0.99902
784.18894 0.99896
782.76054 0.99890
781.33215 0.99884
779.90375 0.99878
778.47536 0.99874
777.04696 0.99870
775.61857 0.99869
774.19017 0.99869
772.76178 0.99871
771.33338 0.99873
769.90499 0.99875
768.47659 0.99875
767.04820 0.99874
765.61980 0.99872
764.19141 0.99867
762.76301 0.99861
761.33462 0.99852
759.90622 0.99841
758.47783 0.99828
757.04943 0.99815
755.62104 0.99803
754.19264 0.99791
752.76425 0.99780
751.33585 0.99771
749.90745 0.99763
748.47906 0.99756
747.05066 0.99751
745.62227 0.99748
744.19387 0.99746
742.76548 0.99745
741.33708 0.99746
739.90869 0.99747
738.48029 0.99749
737.05190 0.99752
735.62350 0.99757
734.19511 0.99762
732.76671 0.99769
731.33832 0.99776
729.90992 0.99784
728.48153 0.99793
727.05313 0.99802
725.62474 0.99811
724.19634 0.99819
722.76795 0.99825
721.33955 0.99830
719.91116 0.99834
718.48276 0.99838
717.05437 0.99843
715.62597 0.99847
714.19758 0.99850
712.76918 0.99852
711.34079 0.99852
709.91239 0.99852
708.48400 0.99851
707.05560 0.99848
705.62721 0.99844
704.19881 0.99839
702.77041 0.99832
701.34202 0.99824
699.91362 0.99815
698.48523 0.99806
697.05683 0.99798
695.62844 0.99791
694.20004 0.99785
692.77165 0.99778
691.34325 0.99772
689.91486 0.99767
688.48646 0.99764
687.05807 0.99760
685.62967 0.99755
684.20128 0.99748
682.77288 0.99738
681.34449 0.99727
679.91609 0.99715
678.48770 0.99703
677.05930 0.99690
675.63091 0.99678
674.20251 0.99666
672.77412 0.99656
671.34572 0.99649
669.91733 0.99646
668.48893 0.99650
667.06054 0.99661
665.63214 0.99676
664.20375 0.99692
662.77535 0.99706
661.34696 0.99718
659.91856 0.99727
658.49017 0.99734
657.06177 0.99737
655.63337 0.99736
654.20498 0.99731
652.77658 0.99724
651.34819 0.99714
649.91979 0.99705
648.49140 0.99698
647.06300 0.99695
645.63461 0.99698
644.20621 0.99704
642.77782 0.99714
641.34942 0.99726
639.92103 0.99740
638.49263 0.99755
637.06424 0.99771
635.63584 0.99787
634.20745 0.99801
632.77905 0.99814
631.35066 0.99825
629.92226 0.99834
628.49387 0.99841
627.06547 0.99846
625.63708 0.99849
624.20868 0.99852
622.78029 0.99854
621.35189 0.99856
619.92350 0.99859
618.49510 0.99864
617.06671 0.99869
615.63831 0.99874
614.20992 0.99877
612.78152 0.99879
611.35313 0.99879
609.92473 0.99879
608.49633 0.99878
607.06794 0.99874
605.63954 0.99867
604.21115 0.99856
602.78275 0.99841
601.35436 0.99826
599.92596 0.99810
598.49757 0.99795
597.06917 0.99782
595.64078 0.99771
594.21238 0.99761
592.78399 0.99752
591.35559 0.99744
589.92720 0.99737
588.49880 0.99732
587.07041 0.99729
585.64201 0.99725
584.21362 0.99723
582.78522 0.99720
581.35683 0.99718
579.92843 0.99716
578.50004 0.99716
577.07164 0.99718
575.64325 0.99720
574.21485 0.99724
572.78646 0.99729
571.35806 0.99732
569.92967 0.99732
568.50127 0.99727
567.07288 0.99717
565.64448 0.99704
564.21609 0.99689
562.78769 0.99676
561.35929 0.99665
559.93090 0.99659
558.50250 0.99655
557.07411 0.99656
555.64571 0.99661
554.21732 0.99673
552.78892 0.99691
551.36053 0.99716
549.93213 0.99743
548.50374 0.99770
547.07534 0.99793
545.64695 0.99812
544.21855 0.99827
542.79016 0.99841
541.36176 0.99853
539.93337 0.99864
538.50497 0.99871
537.07658 0.99873
535.64818 0.99868
534.21979 0.99857
532.79139 0.99843
531.36300 0.99826
529.93460 0.99806
528.50621 0.99784
527.07781 0.99759
525.64942 0.99733
524.22102 0.99710
522.79263 0.99693
521.36423 0.99684
519.93584 0.99682
518.50744 0.99685
517.07905 0.99690
515.65065 0.99697
514.22225 0.99702
512.79386 0.99706
511.36546 0.99707
509.93707 0.99706
508.50867 0.99704
507.08028 0.99700
505.65188 0.99694
504.22349 0.99688
502.79509 0.99682
501.36670 0.99678
499.93830 0.99672
498.50991 0.99663
497.08151 0.99645
495.65312 0.99619
494.22472 0.99581
492.79633 0.99532
491.36793 0.99473
489.93954 0.99408
488.51114 0.99343
487.08275 0.99284
485.65435 0.99234
484.22596 0.99195
482.79756 0.99166
481.36917 0.99146
479.94077 0.99134
478.51238 0.99130
477.08398 0.99135
475.65559 0.99149
474.22719 0.99171
472.79880 0.99194
471.37040 0.99214
469.94201 0.99230
468.51361 0.99247
467.08521 0.99270
465.65682 0.99304
464.22842 0.99348
462.80003 0.99399
461.37163 0.99451
459.94324 0.99499
458.51484 0.99542
457.08645 0.99581
455.65805 0.99620
454.22966 0.99661
452.80126 0.99699
451.37287 0.99727
449.94447 0.99738
448.51608 0.99727
447.08768 0.99701
445.65929 0.99665
444.23089 0.99629
442.80250 0.99596
441.37410 0.99566
439.94571 0.99540
438.51731 0.99523
437.08892 0.99522
435.66052 0.99540
434.23213 0.99579
432.80373 0.99634
431.37534 0.99702
429.94694 0.99776
428.51855 0.99846
427.09015 0.99906
425.66176 0.99951
424.23336 0.99981
422.80497 0.99995
421.37657 1.00000
419.94817 1.00000
418.51978 0.99993
417.09138 0.99982
415.66299 0.99972
414.23459 0.99968
412.80620 0.99967
411.37780 0.99969
409.94941 0.99973
408.52101 0.99977
407.09262 0.99981
405.66422 0.99985
404.23583 0.99989
402.80743 0.99992
401.37904 0.99996
399.95064 1.00000
