3998.07136 0.99996
3996.64296 0.99996
3995.21457 0.99996
3993.78618 0.99996
3992.35779 0.99996
3990.92939 0.99996
3989.50100 0.99996
3988.07261 0.99997
3986.64422 0.99998
3985.21582 0.99998
3983.78743 0.99997
3982.35904 0.99994
3980.93064 0.99990
3979.50225 0.99987
3978.07386 0.99983
3976.64547 0.99981
3975.21707 0.99979
3973.78868 0.99978
3972.36029 0.99977
3970.93189 0.99978
3969.50350 0.99979
3968.07511 0.99979
3966.64672 0.99980
3965.21832 0.99980
3963.78993 0.99979
3962.36154 0.99978
3960.93315 0.99977
3959.50475 0.99975
3958.07636 0.99975
3956.64797 0.99975
3955.21957 0.99976
3953.79118 0.99977
3952.36279 0.99977
3950.93440 0.99977
3949.50600 0.99977
3948.07761 0.99975
3946.64922 0.99974
3945.22082 0.99973
3943.79243 0.99973
3942.36404 0.99973
3940.93565 0.99975
3939.50725 0.99977
3938.07886 0.99978
3936.65047 0.99979
3935.22208 0.99977
3933.79368 0.99974
3932.36529 0.99971
3930.93690 0.99968
3929.50850 0.99966
3928.08011 0.99966
3926.65172 0.99965
3925.22333 0.99965
3923.79493 0.99965
3922.36654 0.99965
3920.93815 0.99963
3919.50976 0.99961
3918.08136 0.99958
3916.65297 0.99956
3915.22458 0.99954
3913.79618 0.99951
3912.36779 0.99949
3910.93940 0.99949
3909.51101 0.99951
3908.08261 0.99954
3906.65422 0.99956
3905.22583 0.99957
3903.79743 0.99958
3902.36904 0.99959
3900.94065 0.99960
3899.51226 0.99961
3898.08386 0.99961
3896.65547 0.99960
3895.22708 0.99961
3893.79869 0.99962
3892.37029 0.99965
3890.94190 0.99966
3889.51351 0.99966
3888.08511 0.99966
3886.65672 0.99967
3885.22833 0.99967
3883.79994 0.99968
3882.37154 0.99968
3880.94315 0.99967
3879.51476 0.99966
3878.08636 0.99964
3876.65797 0.99963
3875.22958 0.99962
3873.80119 0.99961
3872.37279 0.99960
3870.94440 0.99960
3869.51601 0.99961
3868.08762 0.99962
3866.65922 0.99960
3865.23083 0.99956
3863.80244 0.99951
3862.37404 0.99946
3860.94565 0.99946
3859.51726 0.99949
3858.08887 0.99954
3856.66047 0.99959
3855.23208 0.99961
3853.80369 0.99962
3852.37530 0.99960
3850.94690 0.99955
3849.51851 0.99946
3848.09012 0.99937
3846.66172 0.99931
3845.23333 0.99932
3843.80494 0.99941
3842.37655 0.99953
3840.94815 0.99963
3839.51976 0.99968
3838.09137 0.99968
3836.66297 0.99961
3835.23458 0.99951
3833.80619 0.99938
3832.37780 0.99925
3830.94940 0.99914
3829.52101 0.99908
3828.09262 0.99907
3826.66423 0.99909
3825.23583 0.99913
3823.80744 0.99918
3822.37905 0.99921
3820.95065 0.99921
3819.52226 0.99920
3818.09387 0.99917
3816.66548 0.99913
3815.23708 0.99907
3813.80869 0.99900
3812.38030 0.99893
3810.95190 0.99888
3809.52351 0.99885
3808.09512 0.99886
3806.66673 0.99890
3805.23833 0.99896
3803.80994 0.99903
3802.38155 0.99909
3800.95316 0.99912
3799.52476 0.99911
3798.09637 0.99905
3796.66798 0.99898
3795.23958 0.99889
3793.81119 0.99882
3792.38280 0.99876
3790.95441 0.99872
3789.52601 0.99871
3788.09762 0.99871
3786.66923 0.99873
3785.24083 0.99876
3783.81244 0.99878
3782.38405 0.99879
3780.95566 0.99877
3779.52726 0.99875
3778.09887 0.99871
3776.67048 0.99867
3775.24209 0.99864
3773.81369 0.99861
3772.38530 0.99859
3770.95691 0.99860
3769.52851 0.99862
3768.10012 0.99866
3766.67173 0.99868
3765.24334 0.99869
3763.81494 0.99868
3762.38655 0.99866
3760.95816 0.99864
3759.52977 0.99863
3758.10137 0.99863
3756.67298 0.99866
3755.24459 0.99871
3753.81619 0.99875
3752.38780 0.99878
3750.95941 0.99881
3749.53102 0.99884
3748.10262 0.99884
3746.67423 0.99883
3745.24584 0.99880
3743.81744 0.99875
3742.38905 0.99870
3740.96066 0.99866
3739.53227 0.99863
3738.10387 0.99858
3736.67548 0.99852
3735.24709 0.99847
3733.81870 0.99841
3732.39030 0.99837
3730.96191 0.99832
3729.53352 0.99828
3728.10512 0.99825
3726.67673 0.99823
3725.24834 0.99821
3723.81995 0.99821
3722.39155 0.99821
3720.96316 0.99820
3719.53477 0.99818
3718.10637 0.99816
3716.67798 0.99815
3715.24959 0.99817
3713.82120 0.99821
3712.39280 0.99825
3710.96441 0.99827
3709.53602 0.99826
3708.10763 0.99823
3706.67923 0.99819
3705.25084 0.99813
3703.82245 0.99807
3702.39405 0.99801
3700.96566 0.99798
3699.53727 0.99799
3698.10888 0.99804
3696.68048 0.99813
3695.25209 0.99827
3693.82370 0.99842
3692.39531 0.99856
3690.96691 0.99868
3689.53852 0.99877
3688.11013 0.99881
3686.68173 0.99881
3685.25334 0.99876
3683.82495 0.99869
3682.39656 0.99864
3680.96816 0.99867
3679.53977 0.99877
3678.11138 0.99892
3676.68298 0.99910
3675.25459 0.99927
3673.82620 0.99940
3672.39781 0.99948
3670.96941 0.99950
3669.54102 0.99948
3668.11263 0.99942
3666.68424 0.99936
3665.25584 0.99931
3663.82745 0.99928
3662.39906 0.99927
3660.97066 0.99928
3659.54227 0.99929
3658.11388 0.99929
3656.68549 0.99933
3655.25709 0.99940
3653.82870 0.99950
3652.40031 0.99960
3650.97191 0.99968
3649.54352 0.99976
3648.11513 0.99982
3646.68674 0.99987
3645.25834 0.99988
3643.82995 0.99985
3642.40156 0.99977
3640.97317 0.99967
3639.54477 0.99958
3638.11638 0.99952
3636.68799 0.99947
3635.25959 0.99944
3633.83120 0.99941
3632.40281 0.99938
3630.97442 0.99936
3629.54602 0.99937
3628.11763 0.99939
3626.68924 0.99942
3625.26084 0.99947
3623.83245 0.99951
3622.40406 0.99956
3620.97567 0.99961
3619.54727 0.99968
3618.11888 0.99975
3616.69049 0.99978
3615.26210 0.99978
3613.83370 0.99974
3612.40531 0.99967
3610.97692 0.99960
3609.54852 0.99954
3608.12013 0.99950
3606.69174 0.99948
3605.26335 0.99946
3603.83495 0.99944
3602.40656 0.99943
3600.97817 0.99943
3599.54978 0.99944
3598.12138 0.99943
3596.69299 0.99941
3595.26460 0.99936
3593.83620 0.99931
3592.40781 0.99928
3590.97942 0.99927
3589.55103 0.99926
3588.12263 0.99924
3586.69424 0.99920
3585.26585 0.99917
3583.83745 0.99915
3582.40906 0.99916
3580.98067 0.99917
3579.55228 0.99916
3578.12388 0.99914
3576.69549 0.99910
3575.26710 0.99908
3573.83871 0.99907
3572.41031 0.99907
3570.98192 0.99905
3569.55353 0.99902
3568.12513 0.99898
3566.69674 0.99895
3565.26835 0.99893
3563.83996 0.99890
3562.41156 0.99885
3560.98317 0.99879
3559.55478 0.99873
3558.12638 0.99870
3556.69799 0.99868
3555.26960 0.99866
3553.84121 0.99863
3552.41281 0.99862
3550.98442 0.99864
3549.55603 0.99868
3548.12764 0.99872
3546.69924 0.99876
3545.27085 0.99877
3543.84246 0.99878
3542.41406 0.99878
3540.98567 0.99878
3539.55728 0.99878
3538.12889 0.99876
3536.70049 0.99875
3535.27210 0.99876
3533.84371 0.99877
3532.41532 0.99878
3530.98692 0.99878
3529.55853 0.99875
3528.13014 0.99870
3526.70174 0.99864
3525.27335 0.99861
3523.84496 0.99860
3522.41657 0.99861
3520.98817 0.99863
3519.55978 0.99866
3518.13139 0.99870
3516.70299 0.99873
3515.27460 0.99873
3513.84621 0.99871
3512.41782 0.99866
3510.98942 0.99860
3509.56103 0.99853
3508.13264 0.99847
3506.70425 0.99843
3505.27585 0.99843
3503.84746 0.99846
3502.41907 0.99852
3500.99067 0.99860
3499.56228 0.99868
3498.13389 0.99876
3496.70550 0.99883
3495.27710 0.99887
3493.84871 0.99887
3492.42032 0.99882
3490.99192 0.99873
3489.56353 0.99863
3488.13514 0.99853
3486.70675 0.99847
3485.27835 0.99845
3483.84996 0.99849
3482.42157 0.99858
3480.99318 0.99871
3479.56478 0.99885
3478.13639 0.99896
3476.70800 0.99901
3475.27960 0.99901
3473.85121 0.99896
3472.42282 0.99889
3470.99443 0.99882
3469.56603 0.99877
3468.13764 0.99877
3466.70925 0.99881
3465.28085 0.99889
3463.85246 0.99899
3462.42407 0.99909
3460.99568 0.99915
3459.56728 0.99917
3458.13889 0.99916
3456.71050 0.99913
3455.28211 0.99910
3453.85371 0.99910
3452.42532 0.99912
3450.99693 0.99917
3449.56853 0.99922
3448.14014 0.99927
3446.71175 0.99930
3445.28336 0.99931
3443.85496 0.99928
3442.42657 0.99923
3440.99818 0.99918
3439.56979 0.99913
3438.14139 0.99911
3436.71300 0.99912
3435.28461 0.99916
3433.85621 0.99922
3432.42782 0.99930
3430.99943 0.99939
3429.57104 0.99950
3428.14264 0.99961
3426.71425 0.99969
3425.28586 0.99974
3423.85746 0.99976
3422.42907 0.99976
3421.00068 0.99977
3419.57229 0.99976
3418.14389 0.99976
3416.71550 0.99977
3415.28711 0.99980
3413.85872 0.99985
3412.43032 0.99991
3411.00193 0.99993
3409.57354 0.99992
3408.14514 0.99986
3406.71675 0.99979
3405.28836 0.99971
3403.85997 0.99963
3402.43157 0.99957
3401.00318 0.99953
3399.57479 0.99951
3398.14639 0.99954
3396.71800 0.99961
3395.28961 0.99969
3393.86122 0.99975
3392.43282 0.99979
3391.00443 0.99979
3389.57604 0.99979
3388.14765 0.99979
3386.71925 0.99979
3385.29086 0.99978
3383.86247 0.99975
3382.43407 0.99970
3381.00568 0.99967
3379.57729 0.99968
3378.14890 0.99970
3376.72050 0.99973
3375.29211 0.99976
3373.86372 0.99980
3372.43533 0.99986
3371.00693 0.99994
3369.57854 1.00001
3368.15015 1.00004
3366.72175 1.00002
3365.29336 0.99997
3363.86497 0.99991
3362.43658 0.99984
3361.00818 0.99973
3359.57979 0.99961
3358.15140 0.99949
3356.72300 0.99941
3355.29461 0.99939
3353.86622 0.99942
3352.43783 0.99949
3351.00943 0.99957
3349.58104 0.99964
3348.15265 0.99969
3346.72426 0.99970
3345.29586 0.99967
3343.86747 0.99961
3342.43908 0.99955
3341.01068 0.99950
3339.58229 0.99948
3338.15390 0.99948
3336.72551 0.99949
3335.29711 0.99948
3333.86872 0.99946
3332.44033 0.99941
3331.01193 0.99933
3329.58354 0.99924
3328.15515 0.99915
3326.72676 0.99908
3325.29836 0.99904
3323.86997 0.99903
3322.44158 0.99907
3321.01319 0.99915
3319.58479 0.99924
3318.15640 0.99929
3316.72801 0.99930
3315.29961 0.99925
3313.87122 0.99917
3312.44283 0.99908
3311.01444 0.99898
3309.58604 0.99889
3308.15765 0.99883
3306.72926 0.99885
3305.30086 0.99893
3303.87247 0.99902
3302.44408 0.99907
3301.01569 0.99906
3299.58729 0.99901
3298.15890 0.99895
3296.73051 0.99887
3295.30212 0.99878
3293.87372 0.99869
3292.44533 0.99862
3291.01694 0.99857
3289.58854 0.99853
3288.16015 0.99850
3286.73176 0.99844
3285.30337 0.99838
3283.87497 0.99832
3282.44658 0.99829
3281.01819 0.99827
3279.58980 0.99825
3278.16140 0.99824
3276.73301 0.99826
3275.30462 0.99831
3273.87622 0.99838
3272.44783 0.99848
3271.01944 0.99858
3269.59105 0.99867
3268.16265 0.99873
3266.73426 0.99877
3265.30587 0.99878
3263.87747 0.99880
3262.44908 0.99884
3261.02069 0.99888
3259.59230 0.99894
3258.16390 0.99898
3256.73551 0.99902
3255.30712 0.99904
3253.87873 0.99904
3252.45033 0.99903
3251.02194 0.99902
3249.59355 0.99900
3248.16515 0.99901
3246.73676 0.99906
3245.30837 0.99914
3243.87998 0.99922
3242.45158 0.99928
3241.02319 0.99933
3239.59480 0.99939
3238.16640 0.99944
3236.73801 0.99949
3235.30962 0.99954
3233.88123 0.99958
3232.45283 0.99962
3231.02444 0.99965
3229.59605 0.99965
3228.16766 0.99963
3226.73926 0.99961
3225.31087 0.99959
3223.88248 0.99958
3222.45408 0.99959
3221.02569 0.99959
3219.59730 0.99960
3218.16891 0.99961
3216.74051 0.99963
3215.31212 0.99966
3213.88373 0.99966
3212.45534 0.99965
3211.02694 0.99962
3209.59855 0.99957
3208.17016 0.99953
3206.74176 0.99948
3205.31337 0.99946
3203.88498 0.99946
3202.45659 0.99950
3201.02819 0.99956
3199.59980 0.99963
3198.17141 0.99968
3196.74301 0.99969
3195.31462 0.99965
3193.88623 0.99956
3192.45784 0.99943
3191.02944 0.99929
3189.60105 0.99918
3188.17266 0.99911
3186.74427 0.99907
3185.31587 0.99904
3183.88748 0.99903
3182.45909 0.99903
3181.03069 0.99904
3179.60230 0.99905
3178.17391 0.99905
3176.74552 0.99904
3175.31712 0.99902
3173.88873 0.99900
3172.46034 0.99898
3171.03194 0.99895
3169.60355 0.99889
3168.17516 0.99883
3166.74677 0.99876
3165.31837 0.99871
3163.88998 0.99868
3162.46159 0.99867
3161.03320 0.99866
3159.60480 0.99864
3158.17641 0.99862
3156.74802 0.99858
3155.31962 0.99852
3153.89123 0.99845
3152.46284 0.99839
3151.03445 0.99836
3149.60605 0.99835
3148.17766 0.99835
3146.74927 0.99836
3145.32087 0.99836
3143.89248 0.99835
3142.46409 0.99830
3141.03570 0.99824
3139.60730 0.99816
3138.17891 0.99808
3136.75052 0.99802
3135.32213 0.99799
3133.89373 0.99798
3132.46534 0.99799
3131.03695 0.99799
3129.60855 0.99799
3128.18016 0.99798
3126.75177 0.99798
3125.32338 0.99797
3123.89498 0.99796
3122.46659 0.99796
3121.03820 0.99795
3119.60981 0.99793
3118.18141 0.99791
3116.75302 0.99790
3115.32463 0.99790
3113.89623 0.99789
3112.46784 0.99788
3111.03945 0.99786
3109.61106 0.99784
3108.18266 0.99780
3106.75427 0.99775
3105.32588 0.99770
3103.89748 0.99764
3102.46909 0.99760
3101.04070 0.99757
3099.61231 0.99757
3098.18391 0.99759
3096.75552 0.99761
3095.32713 0.99762
3093.89874 0.99762
3092.47034 0.99760
3091.04195 0.99757
3089.61356 0.99754
3088.18516 0.99751
3086.75677 0.99749
3085.32838 0.99748
3083.89999 0.99748
3082.47159 0.99748
3081.04320 0.99749
3079.61481 0.99751
3078.18641 0.99755
3076.75802 0.99759
3075.32963 0.99762
3073.90124 0.99764
3072.47284 0.99764
3071.04445 0.99762
3069.61606 0.99759
3068.18767 0.99756
3066.75927 0.99752
3065.33088 0.99748
3063.90249 0.99746
3062.47409 0.99747
3061.04570 0.99749
3059.61731 0.99753
3058.18892 0.99759
3056.76052 0.99764
3055.33213 0.99767
3053.90374 0.99769
3052.47535 0.99770
3051.04695 0.99770
3049.61856 0.99770
3048.19017 0.99769
3046.76177 0.99770
3045.33338 0.99772
3043.90499 0.99776
3042.47660 0.99781
3041.04820 0.99784
3039.61981 0.99787
3038.19142 0.99790
3036.76302 0.99791
3035.33463 0.99791
3033.90624 0.99788
3032.47785 0.99786
3031.04945 0.99787
3029.62106 0.99789
3028.19267 0.99791
3026.76428 0.99793
3025.33588 0.99794
3023.90749 0.99796
3022.47910 0.99799
3021.05070 0.99803
3019.62231 0.99805
3018.19392 0.99806
3016.76553 0.99806
3015.33713 0.99806
3013.90874 0.99807
3012.48035 0.99806
3011.05195 0.99804
3009.62356 0.99800
3008.19517 0.99797
3006.76678 0.99796
3005.33838 0.99796
3003.90999 0.99796
3002.48160 0.99795
3001.05321 0.99793
2999.62481 0.99789
2998.19642 0.99786
2996.76803 0.99782
2995.33963 0.99777
2993.91124 0.99771
2992.48285 0.99764
2991.05446 0.99757
2989.62606 0.99750
2988.19767 0.99741
2986.76928 0.99731
2985.34088 0.99718
2983.91249 0.99703
2982.48410 0.99688
2981.05571 0.99673
2979.62731 0.99658
2978.19892 0.99642
2976.77053 0.99626
2975.34214 0.99609
2973.91374 0.99591
2972.48535 0.99574
2971.05696 0.99557
2969.62856 0.99539
2968.20017 0.99522
2966.77178 0.99503
2965.34339 0.99483
2963.91499 0.99463
2962.48660 0.99443
2961.05821 0.99424
2959.62982 0.99405
2958.20142 0.99386
2956.77303 0.99368
2955.34464 0.99351
2953.91624 0.99338
2952.48785 0.99326
2951.05946 0.99316
2949.63107 0.99306
2948.20267 0.99295
2946.77428 0.99284
2945.34589 0.99273
2943.91749 0.99264
2942.48910 0.99257
2941.06071 0.99251
2939.63232 0.99247
2938.20392 0.99248
2936.77553 0.99253
2935.34714 0.99263
2933.91875 0.99274
2932.49035 0.99287
2931.06196 0.99301
2929.63357 0.99313
2928.20517 0.99324
2926.77678 0.99334
2925.34839 0.99343
2923.92000 0.99352
2922.49160 0.99361
2921.06321 0.99370
2919.63482 0.99379
2918.20642 0.99388
2916.77803 0.99397
2915.34964 0.99405
2913.92125 0.99413
2912.49285 0.99420
2911.06446 0.99424
2909.63607 0.99426
2908.20768 0.99426
2906.77928 0.99423
2905.35089 0.99420
2903.92250 0.99417
2902.49410 0.99415
2901.06571 0.99412
2899.63732 0.99411
2898.20893 0.99410
2896.78053 0.99411
2895.35214 0.99411
2893.92375 0.99411
2892.49536 0.99412
2891.06696 0.99413
2889.63857 0.99415
2888.21018 0.99419
2886.78178 0.99424
2885.35339 0.99431
2883.92500 0.99440
2882.49661 0.99451
2881.06821 0.99461
2879.63982 0.99473
2878.21143 0.99484
2876.78303 0.99495
2875.35464 0.99506
2873.92625 0.99516
2872.49786 0.99523
2871.06946 0.99529
2869.64107 0.99533
2868.21268 0.99537
2866.78429 0.99540
2865.35589 0.99543
2863.92750 0.99548
2862.49911 0.99554
2861.07071 0.99562
2859.64232 0.99569
2858.21393 0.99576
2856.78554 0.99581
2855.35714 0.99585
2853.92875 0.99588
2852.50036 0.99591
2851.07196 0.99594
2849.64357 0.99599
2848.21518 0.99605
2846.78679 0.99612
2845.35839 0.99621
2843.93000 0.99629
2842.50161 0.99636
2841.07322 0.99644
2839.64482 0.99652
2838.21643 0.99660
2836.78804 0.99668
2835.35964 0.99677
2833.93125 0.99685
2832.50286 0.99693
2831.07447 0.99701
2829.64607 0.99706
2828.21768 0.99710
2826.78929 0.99712
2825.36089 0.99716
2823.93250 0.99720
2822.50411 0.99726
2821.07572 0.99733
2819.64732 0.99739
2818.21893 0.99746
2816.79054 0.99751
2815.36215 0.99756
2813.93375 0.99761
2812.50536 0.99764
2811.07697 0.99767
2809.64857 0.99771
2808.22018 0.99775
2806.79179 0.99781
2805.36340 0.99786
2803.93500 0.99791
2802.50661 0.99796
2801.07822 0.99800
2799.64983 0.99804
2798.22143 0.99807
2796.79304 0.99809
2795.36465 0.99811
2793.93625 0.99813
2792.50786 0.99815
2791.07947 0.99818
2789.65108 0.99820
2788.22268 0.99823
2786.79429 0.99826
2785.36590 0.99829
2783.93750 0.99833
2782.50911 0.99838
2781.08072 0.99841
2779.65233 0.99844
2778.22393 0.99845
2776.79554 0.99846
2775.36715 0.99847
2773.93876 0.99847
2772.51036 0.99846
2771.08197 0.99845
2769.65358 0.99844
2768.22518 0.99845
2766.79679 0.99846
2765.36840 0.99849
2763.94001 0.99852
2762.51161 0.99855
2761.08322 0.99859
2759.65483 0.99862
2758.22643 0.99865
2756.79804 0.99868
2755.36965 0.99871
2753.94126 0.99873
2752.51286 0.99876
2751.08447 0.99878
2749.65608 0.99879
2748.22769 0.99880
2746.79929 0.99880
2745.37090 0.99880
2743.94251 0.99879
2742.51411 0.99879
2741.08572 0.99878
2739.65733 0.99879
2738.22894 0.99879
2736.80054 0.99881
2735.37215 0.99883
2733.94376 0.99885
2732.51537 0.99887
2731.08697 0.99887
2729.65858 0.99887
2728.23019 0.99888
2726.80179 0.99889
2725.37340 0.99890
2723.94501 0.99892
2722.51662 0.99893
2721.08822 0.99894
2719.65983 0.99894
2718.23144 0.99894
2716.80304 0.99895
2715.37465 0.99895
2713.94626 0.99896
2712.51787 0.99898
2711.08947 0.99900
2709.66108 0.99903
2708.23269 0.99906
2706.80430 0.99908
2705.37590 0.99908
2703.94751 0.99906
2702.51912 0.99904
2701.09072 0.99901
2699.66233 0.99898
2698.23394 0.99896
2696.80555 0.99896
2695.37715 0.99897
2693.94876 0.99899
2692.52037 0.99902
2691.09197 0.99905
2689.66358 0.99908
2688.23519 0.99909
2686.80680 0.99910
2685.37840 0.99909
2683.95001 0.99908
2682.52162 0.99907
2681.09323 0.99906
2679.66483 0.99906
2678.23644 0.99906
2676.80805 0.99906
2675.37965 0.99907
2673.95126 0.99907
2672.52287 0.99908
2671.09448 0.99908
2669.66608 0.99909
2668.23769 0.99910
2666.80930 0.99911
2665.38090 0.99913
2663.95251 0.99915
2662.52412 0.99916
2661.09573 0.99918
2659.66733 0.99919
2658.23894 0.99920
2656.81055 0.99921
2655.38216 0.99923
2653.95376 0.99926
2652.52537 0.99928
2651.09698 0.99930
2649.66858 0.99932
2648.24019 0.99933
2646.81180 0.99935
2645.38341 0.99936
2643.95501 0.99937
2642.52662 0.99938
2641.09823 0.99941
2639.66984 0.99944
2638.24144 0.99946
2636.81305 0.99949
2635.38466 0.99951
2633.95626 0.99953
2632.52787 0.99955
2631.09948 0.99957
2629.67109 0.99960
2628.24269 0.99963
2626.81430 0.99966
2625.38591 0.99971
2623.95751 0.99975
2622.52912 0.99978
2621.10073 0.99980
2619.67234 0.99981
2618.24394 0.99981
2616.81555 0.99981
2615.38716 0.99981
2613.95877 0.99981
2612.53037 0.99981
2611.10198 0.99982
2609.67359 0.99984
2608.24519 0.99985
2606.81680 0.99986
2605.38841 0.99986
2603.96002 0.99987
2602.53162 0.99988
2601.10323 0.99990
2599.67484 0.99990
2598.24644 0.99991
2596.81805 0.99991
2595.38966 0.99990
2593.96127 0.99988
2592.53287 0.99987
2591.10448 0.99986
2589.67609 0.99986
2588.24770 0.99988
2586.81930 0.99990
2585.39091 0.99992
2583.96252 0.99993
2582.53412 0.99993
2581.10573 0.99992
2579.67734 0.99990
2578.24895 0.99988
2576.82055 0.99984
2575.39216 0.99980
2573.96377 0.99978
2572.53537 0.99978
2571.10698 0.99977
2569.67859 0.99977
2568.25020 0.99976
2566.82180 0.99976
2565.39341 0.99977
2563.96502 0.99978
2562.53663 0.99979
2561.10823 0.99980
2559.67984 0.99981
2558.25145 0.99981
2556.82305 0.99983
2555.39466 0.99987
2553.96627 0.99990
2552.53788 0.99992
2551.10948 0.99991
2549.68109 0.99990
2548.25270 0.99988
2546.82431 0.99986
2545.39591 0.99983
2543.96752 0.99981
2542.53913 0.99980
2541.11073 0.99980
2539.68234 0.99981
2538.25395 0.99983
2536.82556 0.99984
2535.39716 0.99983
2533.96877 0.99983
2532.54038 0.99983
2531.11198 0.99984
2529.68359 0.99986
2528.25520 0.99990
2526.82681 0.99993
2525.39841 0.99997
2523.97002 0.99999
2522.54163 0.99999
2521.11324 0.99996
2519.68484 0.99992
2518.25645 0.99987
2516.82806 0.99982
2515.39966 0.99977
2513.97127 0.99973
2512.54288 0.99972
2511.11449 0.99972
2509.68609 0.99972
2508.25770 0.99971
2506.82931 0.99970
2505.40091 0.99968
2503.97252 0.99967
2502.54413 0.99966
2501.11574 0.99965
2499.68734 0.99964
2498.25895 0.99965
2496.83056 0.99968
2495.40217 0.99972
2493.97377 0.99976
2492.54538 0.99979
2491.11699 0.99983
2489.68859 0.99986
2488.26020 0.99989
2486.83181 0.99991
2485.40342 0.99992
2483.97502 0.99991
2482.54663 0.99988
2481.11824 0.99984
2479.68985 0.99980
2478.26145 0.99976
2476.83306 0.99973
2475.40467 0.99971
2473.97627 0.99971
2472.54788 0.99971
2471.11949 0.99972
2469.69110 0.99973
2468.26270 0.99974
2466.83431 0.99975
2465.40592 0.99975
2463.97752 0.99975
2462.54913 0.99977
2461.12074 0.99980
2459.69235 0.99983
2458.26395 0.99985
2456.83556 0.99987
2455.40717 0.99987
2453.97878 0.99985
2452.55038 0.99983
2451.12199 0.99981
2449.69360 0.99980
2448.26520 0.99981
2446.83681 0.99984
2445.40842 0.99988
2443.98003 0.99992
2442.55163 0.99994
2441.12324 0.99994
2439.69485 0.99992
2438.26645 0.99989
2436.83806 0.99986
2435.40967 0.99983
2433.98128 0.99980
2432.55288 0.99978
2431.12449 0.99978
2429.69610 0.99979
2428.26771 0.99979
2426.83931 0.99979
2425.41092 0.99978
2423.98253 0.99978
2422.55413 0.99979
2421.12574 0.99981
2419.69735 0.99984
2418.26896 0.99987
2416.84056 0.99991
2415.41217 0.99994
2413.98378 0.99995
2412.55538 0.99996
2411.12699 0.99996
2409.69860 0.99994
2408.27021 0.99992
2406.84181 0.99989
2405.41342 0.99987
2403.98503 0.99987
2402.55664 0.99989
2401.12824 0.99991
2399.69985 0.99992
2398.27146 0.99991
2396.84306 0.99987
2395.41467 0.99984
2393.98628 0.99980
2392.55789 0.99975
2391.12949 0.99970
2389.70110 0.99965
2388.27271 0.99961
2386.84432 0.99959
2385.41592 0.99956
2383.98753 0.99949
2382.55914 0.99937
2381.13074 0.99920
2379.70235 0.99899
2378.27396 0.99877
2376.84557 0.99854
2375.41717 0.99829
2373.98878 0.99803
2372.56039 0.99775
2371.13199 0.99747
2369.70360 0.99721
2368.27521 0.99694
2366.84682 0.99665
2365.41842 0.99633
2363.99003 0.99602
2362.56164 0.99577
2361.13325 0.99561
2359.70485 0.99555
2358.27646 0.99559
2356.84807 0.99576
2355.41967 0.99602
2353.99128 0.99636
2352.56289 0.99672
2351.13450 0.99704
2349.70610 0.99726
2348.27771 0.99736
2346.84932 0.99737
2345.42092 0.99731
2343.99253 0.99720
2342.56414 0.99710
2341.13575 0.99702
2339.70735 0.99698
2338.27896 0.99698
2336.85057 0.99699
2335.42218 0.99701
2333.99378 0.99702
2332.56539 0.99703
2331.13700 0.99706
2329.70860 0.99709
2328.28021 0.99715
2326.85182 0.99724
2325.42343 0.99738
2323.99503 0.99754
2322.56664 0.99771
2321.13825 0.99786
2319.70986 0.99797
2318.28146 0.99805
2316.85307 0.99810
2315.42468 0.99814
2313.99628 0.99818
2312.56789 0.99823
2311.13950 0.99831
2309.71111 0.99843
2308.28271 0.99858
2306.85432 0.99874
2305.42593 0.99889
2303.99753 0.99899
2302.56914 0.99906
2301.14075 0.99909
2299.71236 0.99911
2298.28396 0.99912
2296.85557 0.99915
2295.42718 0.99918
2293.99879 0.99923
2292.57039 0.99929
2291.14200 0.99937
2289.71361 0.99943
2288.28521 0.99947
2286.85682 0.99948
2285.42843 0.99946
2284.00004 0.99944
2282.57164 0.99942
2281.14325 0.99939
2279.71486 0.99938
2278.28646 0.99937
2276.85807 0.99938
2275.42968 0.99940
2274.00129 0.99943
2272.57289 0.99945
2271.14450 0.99947
2269.71611 0.99947
2268.28772 0.99947
2266.85932 0.99947
2265.43093 0.99946
2264.00254 0.99947
2262.57414 0.99948
2261.14575 0.99949
2259.71736 0.99949
2258.28897 0.99948
2256.86057 0.99947
2255.43218 0.99948
2254.00379 0.99948
2252.57539 0.99949
2251.14700 0.99948
2249.71861 0.99946
2248.29022 0.99943
2246.86182 0.99940
2245.43343 0.99939
2244.00504 0.99938
2242.57665 0.99937
2241.14825 0.99938
2239.71986 0.99942
2238.29147 0.99948
2236.86307 0.99955
2235.43468 0.99961
2234.00629 0.99965
2232.57790 0.99970
2231.14950 0.99976
2229.72111 0.99982
2228.29272 0.99987
2226.86433 0.99987
2225.43593 0.99984
2224.00754 0.99979
2222.57915 0.99971
2221.15075 0.99960
2219.72236 0.99946
2218.29397 0.99933
2216.86558 0.99923
2215.43718 0.99919
2214.00879 0.99922
2212.58040 0.99927
2211.15200 0.99934
2209.72361 0.99941
2208.29522 0.99949
2206.86683 0.99956
2205.43843 0.99961
2204.01004 0.99965
2202.58165 0.99967
2201.15326 0.99967
2199.72486 0.99966
2198.29647 0.99966
2196.86808 0.99966
2195.43968 0.99963
2194.01129 0.99958
2192.58290 0.99951
2191.15451 0.99946
2189.72611 0.99946
2188.29772 0.99950
2186.86933 0.99956
2185.44093 0.99964
2184.01254 0.99973
2182.58415 0.99981
2181.15576 0.99985
2179.72736 0.99986
2178.29897 0.99984
2176.87058 0.99981
2175.44219 0.99978
2174.01379 0.99978
2172.58540 0.99981
2171.15701 0.99986
2169.72861 0.99991
2168.30022 0.99998
2166.87183 1.00002
2165.44344 0.99998
2164.01504 0.99988
2162.58665 0.99975
2161.15826 0.99963
2159.72987 0.99950
2158.30147 0.99935
2156.87308 0.99923
2155.44469 0.99917
2154.01629 0.99916
2152.58790 0.99920
2151.15951 0.99926
2149.73112 0.99932
2148.30272 0.99935
2146.87433 0.99939
2145.44594 0.99944
2144.01754 0.99946
2142.58915 0.99941
2141.16076 0.99930
2139.73237 0.99915
2138.30397 0.99899
2136.87558 0.99883
2135.44719 0.99872
2134.01880 0.99867
2132.59040 0.99869
2131.16201 0.99878
2129.73362 0.99889
2128.30522 0.99900
2126.87683 0.99908
2125.44844 0.99911
2124.02005 0.99910
2122.59165 0.99905
2121.16326 0.99899
2119.73487 0.99893
2118.30647 0.99891
2116.87808 0.99893
2115.44969 0.99898
2114.02130 0.99904
2112.59290 0.99907
2111.16451 0.99906
2109.73612 0.99901
2108.30773 0.99894
2106.87933 0.99888
2105.45094 0.99886
2104.02255 0.99888
2102.59415 0.99895
2101.16576 0.99906
2099.73737 0.99919
2098.30898 0.99932
2096.88058 0.99943
2095.45219 0.99951
2094.02380 0.99953
2092.59540 0.99949
2091.16701 0.99940
2089.73862 0.99927
2088.31023 0.99916
2086.88183 0.99906
2085.45344 0.99900
2084.02505 0.99894
2082.59666 0.99887
2081.16826 0.99880
2079.73987 0.99877
2078.31148 0.99880
2076.88308 0.99888
2075.45469 0.99900
2074.02630 0.99911
2072.59791 0.99921
2071.16951 0.99931
2069.74112 0.99940
2068.31273 0.99946
2066.88434 0.99947
2065.45594 0.99945
2064.02755 0.99943
2062.59916 0.99942
2061.17076 0.99942
2059.74237 0.99942
2058.31398 0.99941
2056.88559 0.99938
2055.45719 0.99936
2054.02880 0.99938
2052.60041 0.99943
2051.17201 0.99950
2049.74362 0.99959
2048.31523 0.99969
2046.88684 0.99977
2045.45844 0.99981
2044.03005 0.99977
2042.60166 0.99967
2041.17327 0.99951
2039.74487 0.99933
2038.31648 0.99914
2036.88809 0.99898
2035.45969 0.99884
2034.03130 0.99876
2032.60291 0.99875
2031.17452 0.99884
2029.74612 0.99902
2028.31773 0.99924
2026.88934 0.99944
2025.46094 0.99957
2024.03255 0.99962
2022.60416 0.99957
2021.17577 0.99946
2019.74737 0.99930
2018.31898 0.99915
2016.89059 0.99903
2015.46220 0.99894
2014.03380 0.99892
2012.60541 0.99896
2011.17702 0.99903
2009.74862 0.99908
2008.32023 0.99908
2006.89184 0.99902
2005.46345 0.99896
2004.03505 0.99890
2002.60666 0.99888
2001.17827 0.99887
1999.74988 0.99885
1998.32148 0.99881
1996.89309 0.99878
1995.46470 0.99878
1994.03630 0.99882
1992.60791 0.99889
1991.17952 0.99899
1989.75113 0.99911
1988.32273 0.99922
1986.89434 0.99930
1985.46595 0.99932
1984.03755 0.99928
1982.60916 0.99921
1981.18077 0.99916
1979.75238 0.99911
1978.32398 0.99905
1976.89559 0.99899
1975.46720 0.99893
1974.03881 0.99890
1972.61041 0.99888
1971.18202 0.99886
1969.75363 0.99884
1968.32523 0.99881
1966.89684 0.99880
1965.46845 0.99880
1964.04006 0.99881
1962.61166 0.99881
1961.18327 0.99878
1959.75488 0.99872
1958.32648 0.99865
1956.89809 0.99859
1955.46970 0.99856
1954.04131 0.99856
1952.61291 0.99860
1951.18452 0.99864
1949.75613 0.99865
1948.32774 0.99863
1946.89934 0.99858
1945.47095 0.99854
1944.04256 0.99852
1942.61416 0.99851
1941.18577 0.99852
1939.75738 0.99855
1938.32899 0.99859
1936.90059 0.99863
1935.47220 0.99864
1934.04381 0.99861
1932.61541 0.99855
1931.18702 0.99849
1929.75863 0.99843
1928.33024 0.99839
1926.90184 0.99836
1925.47345 0.99833
1924.04506 0.99831
1922.61667 0.99831
1921.18827 0.99832
1919.75988 0.99832
1918.33149 0.99832
1916.90309 0.99834
1915.47470 0.99840
1914.04631 0.99848
1912.61792 0.99854
1911.18952 0.99856
1909.76113 0.99852
1908.33274 0.99845
1906.90435 0.99837
1905.47595 0.99829
1904.04756 0.99821
1902.61917 0.99814
1901.19077 0.99810
1899.76238 0.99809
1898.33399 0.99812
1896.90560 0.99815
1895.47720 0.99816
1894.04881 0.99816
1892.62042 0.99814
1891.19202 0.99812
1889.76363 0.99812
1888.33524 0.99813
1886.90685 0.99815
1885.47845 0.99816
1884.05006 0.99818
1882.62167 0.99819
1881.19328 0.99820
1879.76488 0.99821
1878.33649 0.99822
1876.90810 0.99822
1875.47970 0.99825
1874.05131 0.99827
1872.62292 0.99829
1871.19453 0.99831
1869.76613 0.99831
1868.33774 0.99831
1866.90935 0.99830
1865.48095 0.99828
1864.05256 0.99823
1862.62417 0.99816
1861.19578 0.99810
1859.76738 0.99806
1858.33899 0.99802
1856.91060 0.99798
1855.48221 0.99795
1854.05381 0.99792
1852.62542 0.99793
1851.19703 0.99798
1849.76863 0.99806
1848.34024 0.99813
1846.91185 0.99820
1845.48346 0.99824
1844.05506 0.99826
1842.62667 0.99826
1841.19828 0.99824
1839.76989 0.99819
1838.34149 0.99812
1836.91310 0.99806
1835.48471 0.99801
1834.05631 0.99799
1832.62792 0.99799
1831.19953 0.99801
1829.77114 0.99803
1828.34274 0.99805
1826.91435 0.99806
1825.48596 0.99805
1824.05756 0.99803
1822.62917 0.99801
1821.20078 0.99798
1819.77239 0.99795
1818.34399 0.99792
1816.91560 0.99790
1815.48721 0.99789
1814.05882 0.99790
1812.63042 0.99792
1811.20203 0.99793
1809.77364 0.99793
1808.34524 0.99793
1806.91685 0.99795
1805.48846 0.99798
1804.06007 0.99800
1802.63167 0.99803
1801.20328 0.99805
1799.77489 0.99807
1798.34649 0.99811
1796.91810 0.99815
1795.48971 0.99818
1794.06132 0.99818
1792.63292 0.99816
1791.20453 0.99812
1789.77614 0.99808
1788.34775 0.99804
1786.91935 0.99798
1785.49096 0.99792
1784.06257 0.99786
1782.63417 0.99783
1781.20578 0.99782
1779.77739 0.99785
1778.34900 0.99790
1776.92060 0.99797
1775.49221 0.99803
1774.06382 0.99808
1772.63542 0.99810
1771.20703 0.99810
1769.77864 0.99809
1768.35025 0.99804
1766.92185 0.99798
1765.49346 0.99791
1764.06507 0.99785
1762.63668 0.99781
1761.20828 0.99780
1759.77989 0.99781
1758.35150 0.99784
1756.92310 0.99788
1755.49471 0.99794
1754.06632 0.99799
1752.63793 0.99803
1751.20953 0.99806
1749.78114 0.99805
1748.35275 0.99804
1746.92436 0.99802
1745.49596 0.99800
1744.06757 0.99798
1742.63918 0.99797
1741.21078 0.99798
1739.78239 0.99802
1738.35400 0.99808
1736.92561 0.99812
1735.49721 0.99814
1734.06882 0.99813
1732.64043 0.99812
1731.21203 0.99808
1729.78364 0.99803
1728.35525 0.99796
1726.92686 0.99787
1725.49846 0.99780
1724.07007 0.99777
1722.64168 0.99779
1721.21329 0.99783
1719.78489 0.99788
1718.35650 0.99792
1716.92811 0.99796
1715.49971 0.99798
1714.07132 0.99799
1712.64293 0.99798
1711.21454 0.99795
1709.78614 0.99792
1708.35775 0.99789
1706.92936 0.99790
1705.50096 0.99794
1704.07257 0.99800
1702.64418 0.99807
1701.21579 0.99812
1699.78739 0.99816
1698.35900 0.99819
1696.93061 0.99819
1695.50222 0.99818
1694.07382 0.99814
1692.64543 0.99807
1691.21704 0.99802
1689.78864 0.99799
1688.36025 0.99798
1686.93186 0.99797
1685.50347 0.99795
1684.07507 0.99791
1682.64668 0.99786
1681.21829 0.99780
1679.78990 0.99772
1678.36150 0.99762
1676.93311 0.99753
1675.50472 0.99744
1674.07632 0.99736
1672.64793 0.99728
1671.21954 0.99718
1669.79115 0.99707
1668.36275 0.99694
1666.93436 0.99680
1665.50597 0.99666
1664.07757 0.99653
1662.64918 0.99640
1661.22079 0.99630
1659.79240 0.99625
1658.36400 0.99624
1656.93561 0.99626
1655.50722 0.99629
1654.07883 0.99636
1652.65043 0.99647
1651.22204 0.99659
1649.79365 0.99672
1648.36525 0.99684
1646.93686 0.99696
1645.50847 0.99707
1644.08008 0.99721
1642.65168 0.99740
1641.22329 0.99762
1639.79490 0.99785
1638.36650 0.99807
1636.93811 0.99828
1635.50972 0.99848
1634.08133 0.99866
1632.65293 0.99882
1631.22454 0.99896
1629.79615 0.99908
1628.36776 0.99920
1626.93936 0.99933
1625.51097 0.99947
1624.08258 0.99962
1622.65418 0.99974
1621.22579 0.99984
1619.79740 0.99990
1618.36901 0.99994
1616.94061 0.99996
1615.51222 0.99996
1614.08383 0.99996
1612.65543 0.99995
1611.22704 0.99995
1609.79865 0.99996
1608.37026 0.99996
1606.94186 0.99996
1605.51347 0.99995
1604.08508 0.99993
1602.65669 0.99989
1601.22829 0.99985
1599.79990 0.99979
1598.37151 0.99973
1596.94311 0.99967
1595.51472 0.99962
1594.08633 0.99958
1592.65794 0.99955
1591.22954 0.99951
1589.80115 0.99947
1588.37276 0.99943
1586.94437 0.99938
1585.51597 0.99932
1584.08758 0.99928
1582.65919 0.99925
1581.23079 0.99922
1579.80240 0.99917
1578.37401 0.99912
1576.94562 0.99907
1575.51722 0.99903
1574.08883 0.99898
1572.66044 0.99894
1571.23204 0.99889
1569.80365 0.99883
1568.37526 0.99877
1566.94687 0.99875
1565.51847 0.99875
1564.09008 0.99875
1562.66169 0.99873
1561.23330 0.99867
1559.80490 0.99858
1558.37651 0.99844
1556.94812 0.99828
1555.51972 0.99809
1554.09133 0.99789
1552.66294 0.99769
1551.23455 0.99753
1549.80615 0.99745
1548.37776 0.99745
1546.94937 0.99754
1545.52097 0.99766
1544.09258 0.99778
1542.66419 0.99789
1541.23580 0.99796
1539.80740 0.99801
1538.37901 0.99802
1536.95062 0.99801
1535.52223 0.99799
1534.09383 0.99796
1532.66544 0.99795
1531.23705 0.99799
1529.80865 0.99807
1528.38026 0.99815
1526.95187 0.99822
1525.52348 0.99828
1524.09508 0.99832
1522.66669 0.99834
1521.23830 0.99835
1519.80991 0.99834
1518.38151 0.99832
1516.95312 0.99828
1515.52473 0.99827
1514.09633 0.99832
1512.66794 0.99842
1511.23955 0.99852
1509.81116 0.99859
1508.38276 0.99864
1506.95437 0.99866
1505.52598 0.99865
1504.09758 0.99861
1502.66919 0.99856
1501.24080 0.99848
1499.81241 0.99839
1498.38401 0.99833
1496.95562 0.99832
1495.52723 0.99833
1494.09884 0.99831
1492.67044 0.99826
1491.24205 0.99818
1489.81366 0.99807
1488.38526 0.99796
1486.95687 0.99783
1485.52848 0.99768
1484.10009 0.99750
1482.67169 0.99730
1481.24330 0.99710
1479.81491 0.99690
1478.38651 0.99667
1476.95812 0.99639
1475.52973 0.99606
1474.10134 0.99570
1472.67294 0.99534
1471.24455 0.99497
1469.81616 0.99460
1468.38777 0.99423
1466.95937 0.99388
1465.53098 0.99360
1464.10259 0.99341
1462.67419 0.99330
1461.24580 0.99321
1459.81741 0.99315
1458.38902 0.99310
1456.96062 0.99306
1455.53223 0.99300
1454.10384 0.99291
1452.67544 0.99277
1451.24705 0.99257
1449.81866 0.99234
1448.39027 0.99210
1446.96187 0.99187
1445.53348 0.99163
1444.10509 0.99140
1442.67670 0.99117
1441.24830 0.99094
1439.81991 0.99069
1438.39152 0.99044
1436.96312 0.99018
1435.53473 0.98991
1434.10634 0.98965
1432.67795 0.98939
1431.24955 0.98913
1429.82116 0.98890
1428.39277 0.98869
1426.96438 0.98852
1425.53598 0.98837
1424.10759 0.98824
1422.67920 0.98813
1421.25080 0.98803
1419.82241 0.98794
1418.39402 0.98786
1416.96563 0.98779
1415.53723 0.98773
1414.10884 0.98770
1412.68045 0.98769
1411.25205 0.98771
1409.82366 0.98776
1408.39527 0.98786
1406.96688 0.98799
1405.53848 0.98815
1404.11009 0.98836
1402.68170 0.98859
1401.25331 0.98884
1399.82491 0.98911
1398.39652 0.98937
1396.96813 0.98963
1395.53973 0.98988
1394.11134 0.99013
1392.68295 0.99038
1391.25456 0.99061
1389.82616 0.99083
1388.39777 0.99105
1386.96938 0.99127
1385.54098 0.99148
1384.11259 0.99168
1382.68420 0.99187
1381.25581 0.99205
1379.82741 0.99221
1378.39902 0.99238
1376.97063 0.99253
1375.54224 0.99266
1374.11384 0.99278
1372.68545 0.99289
1371.25706 0.99297
1369.82866 0.99304
1368.40027 0.99308
1366.97188 0.99311
1365.54349 0.99313
1364.11509 0.99314
1362.68670 0.99315
1361.25831 0.99314
1359.82992 0.99313
1358.40152 0.99310
1356.97313 0.99307
1355.54474 0.99304
1354.11634 0.99302
1352.68795 0.99301
1351.25956 0.99300
1349.83117 0.99298
1348.40277 0.99297
1346.97438 0.99296
1345.54599 0.99295
1344.11759 0.99294
1342.68920 0.99291
1341.26081 0.99288
1339.83242 0.99283
1338.40402 0.99278
1336.97563 0.99273
1335.54724 0.99269
1334.11885 0.99263
1332.69045 0.99257
1331.26206 0.99252
1329.83367 0.99246
1328.40527 0.99242
1326.97688 0.99238
1325.54849 0.99236
1324.12010 0.99234
1322.69170 0.99234
1321.26331 0.99235
1319.83492 0.99237
1318.40652 0.99237
1316.97813 0.99236
1315.54974 0.99235
1314.12135 0.99235
1312.69295 0.99234
1311.26456 0.99234
1309.83617 0.99235
1308.40778 0.99237
1306.97938 0.99240
1305.55099 0.99243
1304.12260 0.99247
1302.69420 0.99251
1301.26581 0.99253
1299.83742 0.99256
1298.40903 0.99259
1296.98063 0.99262
1295.55224 0.99266
1294.12385 0.99270
1292.69545 0.99275
1291.26706 0.99281
1289.83867 0.99287
1288.41028 0.99294
1286.98188 0.99301
1285.55349 0.99309
1284.12510 0.99317
1282.69671 0.99324
1281.26831 0.99330
1279.83992 0.99336
1278.41153 0.99343
1276.98313 0.99350
1275.55474 0.99356
1274.12635 0.99361
1272.69796 0.99365
1271.26956 0.99367
1269.84117 0.99368
1268.41278 0.99367
1266.98439 0.99366
1265.55599 0.99364
1264.12760 0.99363
1262.69921 0.99363
1261.27081 0.99364
1259.84242 0.99365
1258.41403 0.99365
1256.98564 0.99365
1255.55724 0.99364
1254.12885 0.99364
1252.70046 0.99363
1251.27206 0.99362
1249.84367 0.99361
1248.41528 0.99362
1246.98689 0.99363
1245.55849 0.99365
1244.13010 0.99367
1242.70171 0.99367
1241.27332 0.99367
1239.84492 0.99367
1238.41653 0.99366
1236.98814 0.99364
1235.55974 0.99362
1234.13135 0.99358
1232.70296 0.99355
1231.27457 0.99352
1229.84617 0.99349
1228.41778 0.99347
1226.98939 0.99346
1225.56099 0.99345
1224.13260 0.99345
1222.70421 0.99345
1221.27582 0.99347
1219.84742 0.99349
1218.41903 0.99352
1216.99064 0.99356
1215.56225 0.99361
1214.13385 0.99368
1212.70546 0.99378
1211.27707 0.99389
1209.84867 0.99403
1208.42028 0.99420
1206.99189 0.99438
1205.56350 0.99460
1204.13510 0.99486
1202.70671 0.99516
1201.27832 0.99549
1199.84993 0.99583
1198.42153 0.99618
1196.99314 0.99653
1195.56475 0.99687
1194.13635 0.99718
1192.70796 0.99745
1191.27957 0.99769
1189.85118 0.99789
1188.42278 0.99809
1186.99439 0.99828
1185.56600 0.99847
1184.13760 0.99865
1182.70921 0.99882
1181.28082 0.99898
1179.85243 0.99914
1178.42403 0.99930
1176.99564 0.99945
1175.56725 0.99958
1174.13886 0.99968
1172.71046 0.99977
1171.28207 0.99984
1169.85368 0.99989
1168.42528 0.99993
1166.99689 0.99996
1165.56850 0.99998
1164.14011 0.99999
1162.71171 0.99999
1161.28332 0.99997
1159.85493 0.99992
1158.42653 0.99985
1156.99814 0.99974
1155.56975 0.99959
1154.14136 0.99939
1152.71296 0.99914
1151.28457 0.99883
1149.85618 0.99847
1148.42779 0.99806
1146.99939 0.99760
1145.57100 0.99710
1144.14261 0.99657
1142.71421 0.99601
1141.28582 0.99545
1139.85743 0.99492
1138.42904 0.99443
1137.00064 0.99401
1135.57225 0.99367
1134.14386 0.99342
1132.71546 0.99326
1131.28707 0.99319
1129.85868 0.99316
1128.43029 0.99316
1127.00189 0.99313
1125.57350 0.99306
1124.14511 0.99291
1122.71672 0.99267
1121.28832 0.99234
1119.85993 0.99192
1118.43154 0.99141
1117.00314 0.99083
1115.57475 0.99017
1114.14636 0.98945
1112.71797 0.98867
1111.28957 0.98784
1109.86118 0.98698
1108.43279 0.98611
1107.00440 0.98527
1105.57600 0.98446
1104.14761 0.98369
1102.71922 0.98295
1101.29082 0.98222
1099.86243 0.98148
1098.43404 0.98070
1097.00565 0.97986
1095.57725 0.97894
1094.14886 0.97796
1092.72047 0.97692
1091.29207 0.97589
1089.86368 0.97491
1088.43529 0.97406
1087.00690 0.97338
1085.57850 0.97293
1084.15011 0.97273
1082.72172 0.97281
1081.29333 0.97314
1079.86493 0.97372
1078.43654 0.97451
1077.00815 0.97545
1075.57975 0.97649
1074.15136 0.97755
1072.72297 0.97856
1071.29458 0.97950
1069.86618 0.98031
1068.43779 0.98096
1067.00940 0.98145
1065.58100 0.98178
1064.15261 0.98195
1062.72422 0.98197
1061.29583 0.98185
1059.86743 0.98162
1058.43904 0.98129
1057.01065 0.98088
1055.58226 0.98043
1054.15386 0.97995
1052.72547 0.97950
1051.29708 0.97912
1049.86868 0.97883
1048.44029 0.97866
1047.01190 0.97862
1045.58351 0.97868
1044.15511 0.97882
1042.72672 0.97900
1041.29833 0.97921
1039.86994 0.97942
1038.44154 0.97962
1037.01315 0.97980
1035.58476 0.97997
1034.15636 0.98013
1032.72797 0.98030
1031.29958 0.98047
1029.87119 0.98066
1028.44279 0.98088
1027.01440 0.98115
1025.58601 0.98147
1024.15761 0.98183
1022.72922 0.98222
1021.30083 0.98263
1019.87244 0.98307
1018.44404 0.98354
1017.01565 0.98402
1015.58726 0.98450
1014.15887 0.98496
1012.73047 0.98538
1011.30208 0.98577
1009.87369 0.98612
1008.44529 0.98645
1007.01690 0.98679
1005.58851 0.98716
1004.16012 0.98757
1002.73172 0.98807
1001.30333 0.98867
999.87494 0.98939
998.44654 0.99020
997.01815 0.99107
995.58976 0.99193
994.16137 0.99277
992.73297 0.99355
991.30458 0.99427
989.87619 0.99490
988.44780 0.99544
987.01940 0.99588
985.59101 0.99624
984.16262 0.99655
982.73422 0.99681
981.30583 0.99705
979.87744 0.99726
978.44905 0.99745
977.02065 0.99763
975.59226 0.99779
974.16387 0.99794
972.73547 0.99806
971.30708 0.99817
969.87869 0.99825
968.45030 0.99832
967.02190 0.99836
965.59351 0.99837
964.16512 0.99838
962.73673 0.99836
961.30833 0.99831
959.87994 0.99823
958.45155 0.99815
957.02315 0.99806
955.59476 0.99800
954.16637 0.99796
952.73798 0.99795
951.30958 0.99798
949.88119 0.99804
948.45280 0.99813
947.02441 0.99824
945.59601 0.99834
944.16762 0.99842
942.73923 0.99847
941.31083 0.99848
939.88244 0.99848
938.45405 0.99846
937.02566 0.99843
935.59726 0.99842
934.16887 0.99841
932.74048 0.99841
931.31208 0.99842
929.88369 0.99843
928.45530 0.99845
927.02691 0.99848
925.59851 0.99854
924.17012 0.99863
922.74173 0.99878
921.31334 0.99897
919.88494 0.99917
918.45655 0.99936
917.02816 0.99952
915.59976 0.99964
914.17137 0.99972
912.74298 0.99976
911.31459 0.99977
909.88619 0.99975
908.45780 0.99972
907.02941 0.99969
905.60101 0.99963
904.17262 0.99951
902.74423 0.99933
901.31584 0.99906
899.88744 0.99870
898.45905 0.99827
897.03066 0.99779
895.60227 0.99731
894.17387 0.99687
892.74548 0.99650
891.31709 0.99623
889.88869 0.99607
888.46030 0.99601
887.03191 0.99605
885.60352 0.99616
884.17512 0.99629
882.74673 0.99642
881.31834 0.99652
879.88995 0.99660
878.46155 0.99668
877.03316 0.99675
875.60477 0.99682
874.17637 0.99688
872.74798 0.99695
871.31959 0.99702
869.89120 0.99711
868.46280 0.99722
867.03441 0.99733
865.60602 0.99746
864.17762 0.99761
862.74923 0.99775
861.32084 0.99791
859.89245 0.99806
858.46405 0.99821
857.03566 0.99834
855.60727 0.99847
854.17888 0.99859
852.75048 0.99872
851.32209 0.99883
849.89370 0.99893
848.46530 0.99901
847.03691 0.99908
845.60852 0.99915
844.18013 0.99922
842.75173 0.99929
841.32334 0.99937
839.89495 0.99944
838.46655 0.99953
837.03816 0.99961
835.60977 0.99967
834.18138 0.99968
832.75298 0.99966
831.32459 0.99963
829.89620 0.99960
828.46781 0.99959
827.03941 0.99959
825.61102 0.99959
824.18263 0.99960
822.75423 0.99964
821.32584 0.99972
819.89745 0.99980
818.46906 0.99986
817.04066 0.99990
815.61227 0.99990
814.18388 0.99988
812.75548 0.99983
811.32709 0.99976
809.89870 0.99968
808.47031 0.99961
807.04191 0.99956
805.61352 0.99955
804.18513 0.99955
802.75674 0.99955
801.32834 0.99954
799.89995 0.99951
798.47156 0.99945
797.04316 0.99937
795.61477 0.99929
794.18638 0.99923
792.75799 0.99920
791.32959 0.99921
789.90120 0.99924
788.47281 0.99927
787.04442 0.99927
785.61602 0.99922
784.18763 0.99914
782.75924 0.99902
781.33084 0.99888
779.90245 0.99872
778.47406 0.99858
777.04567 0.99847
775.61727 0.99839
774.18888 0.99835
772.76049 0.99835
771.33209 0.99838
769.90370 0.99844
768.47531 0.99851
767.04692 0.99857
765.61852 0.99860
764.19013 0.99859
762.76174 0.99853
761.33335 0.99844
759.90495 0.99831
758.47656 0.99813
757.04817 0.99792
755.61977 0.99770
754.19138 0.99750
752.76299 0.99732
751.33460 0.99717
749.90620 0.99705
748.47781 0.99697
747.04942 0.99692
745.62102 0.99691
744.19263 0.99697
742.76424 0.99706
741.33585 0.99717
739.90745 0.99729
738.47906 0.99742
737.05067 0.99756
735.62228 0.99771
734.19388 0.99786
732.76549 0.99796
731.33710 0.99801
729.90870 0.99801
728.48031 0.99797
727.05192 0.99792
725.62353 0.99789
724.19513 0.99787
722.76674 0.99787
721.33835 0.99793
719.90996 0.99806
718.48156 0.99823
717.05317 0.99840
715.62478 0.99852
714.19638 0.99859
712.76799 0.99864
711.33960 0.99866
709.91121 0.99865
708.48281 0.99862
707.05442 0.99855
705.62603 0.99846
704.19763 0.99835
702.76924 0.99825
701.34085 0.99814
699.91246 0.99805
698.48406 0.99798
697.05567 0.99798
695.62728 0.99801
694.19889 0.99804
692.77049 0.99805
691.34210 0.99805
689.91371 0.99805
688.48531 0.99804
687.05692 0.99802
685.62853 0.99799
684.20014 0.99798
682.77174 0.99801
681.34335 0.99805
679.91496 0.99807
678.48656 0.99801
677.05817 0.99784
675.62978 0.99759
674.20139 0.99734
672.77299 0.99714
671.34460 0.99701
669.91621 0.99695
668.48782 0.99695
667.05942 0.99704
665.63103 0.99719
664.20264 0.99737
662.77424 0.99751
661.34585 0.99756
659.91746 0.99750
658.48907 0.99739
657.06067 0.99731
655.63228 0.99728
654.20389 0.99730
652.77549 0.99736
651.34710 0.99744
649.91871 0.99755
648.49032 0.99766
647.06192 0.99775
645.63353 0.99781
644.20514 0.99782
642.77675 0.99776
641.34835 0.99768
639.91996 0.99759
638.49157 0.99754
637.06317 0.99751
635.63478 0.99749
634.20639 0.99749
632.77800 0.99753
631.34960 0.99764
629.92121 0.99780
628.49282 0.99797
627.06443 0.99809
625.63603 0.99815
624.20764 0.99815
622.77925 0.99814
621.35085 0.99811
619.92246 0.99805
618.49407 0.99800
617.06568 0.99796
615.63728 0.99793
614.20889 0.99785
612.78050 0.99770
611.35210 0.99749
609.92371 0.99726
608.49532 0.99709
607.06693 0.99702
605.63853 0.99705
604.21014 0.99716
602.78175 0.99732
601.35336 0.99748
599.92496 0.99757
598.49657 0.99752
597.06818 0.99734
595.63978 0.99709
594.21139 0.99689
592.78300 0.99678
591.35461 0.99678
589.92621 0.99684
588.49782 0.99691
587.06943 0.99698
585.64103 0.99704
584.21264 0.99713
582.78425 0.99722
581.35586 0.99731
579.92746 0.99739
578.49907 0.99748
577.07068 0.99756
575.64229 0.99760
574.21389 0.99757
572.78550 0.99746
571.35711 0.99728
569.92871 0.99711
568.50032 0.99699
567.07193 0.99695
565.64354 0.99694
564.21514 0.99694
562.78675 0.99694
561.35836 0.99692
559.92997 0.99693
558.50157 0.99701
557.07318 0.99718
555.64479 0.99743
554.21639 0.99775
552.78800 0.99812
551.35961 0.99845
549.93122 0.99867
548.50282 0.99877
547.07443 0.99879
545.64604 0.99879
544.21764 0.99879
542.78925 0.99882
541.36086 0.99884
539.93247 0.99880
538.50407 0.99866
537.07568 0.99848
535.64729 0.99827
534.21890 0.99800
532.79050 0.99766
531.36211 0.99732
529.93372 0.99707
528.50532 0.99690
527.07693 0.99674
525.64854 0.99658
524.22015 0.99647
522.79175 0.99644
521.36336 0.99650
519.93497 0.99661
518.50657 0.99676
517.07818 0.99692
515.64979 0.99710
514.22140 0.99729
512.79300 0.99748
511.36461 0.99761
509.93622 0.99769
508.50783 0.99777
507.07943 0.99789
505.65104 0.99799
504.22265 0.99794
502.79425 0.99773
501.36586 0.99742
499.93747 0.99716
498.50908 0.99706
497.08068 0.99717
495.65229 0.99738
494.22390 0.99751
492.79550 0.99751
491.36711 0.99746
489.93872 0.99743
488.51033 0.99734
487.08193 0.99709
485.65354 0.99675
484.22515 0.99648
482.79676 0.99645
481.36836 0.99664
479.93997 0.99685
478.51158 0.99681
477.08318 0.99647
475.65479 0.99605
474.22640 0.99577
472.79801 0.99567
471.36961 0.99567
469.94122 0.99572
468.51283 0.99578
467.08444 0.99583
465.65604 0.99582
464.22765 0.99574
462.79926 0.99557
461.37086 0.99531
459.94247 0.99497
458.51408 0.99459
457.08569 0.99422
455.65729 0.99398
454.22890 0.99396
452.80051 0.99410
451.37211 0.99420
449.94372 0.99409
448.51533 0.99387
447.08694 0.99378
445.65854 0.99389
444.23015 0.99415
442.80176 0.99451
441.37337 0.99497
439.94497 0.99560
438.51658 0.99632
437.08819 0.99699
435.65979 0.99743
434.23140 0.99754
432.80301 0.99727
431.37462 0.99669
429.94622 0.99591
428.51783 0.99512
427.08944 0.99458
425.66104 0.99437
424.23265 0.99438
422.80426 0.99460
421.37587 0.99510
419.94747 0.99593
418.51908 0.99697
417.09069 0.99789
415.66230 0.99835
414.23390 0.99823
412.80551 0.99770
411.37712 0.99697
409.94872 0.99620
408.52033 0.99541
407.09194 0.99541
405.66355 0.99541
404.23515 0.99541
402.80676 0.99541
401.37837 0.99541
399.94998 0.99541
