3998.07803 1.00000
3996.64964 1.00000
3995.22124 0.99999
3993.79285 0.99999
3992.36445 0.99998
3990.93605 0.99998
3989.50766 0.99998
3988.07926 0.99997
3986.65087 0.99997
3985.22247 0.99995
3983.79408 0.99993
3982.36568 0.99991
3980.93729 0.99990
3979.50889 0.99989
3978.08050 0.99988
3976.65210 0.99988
3975.22371 0.99989
3973.79531 0.99990
3972.36692 0.99991
3970.93852 0.99991
3969.51013 0.99991
3968.08173 0.99991
3966.65334 0.99989
3965.22494 0.99987
3963.79655 0.99984
3962.36815 0.99981
3960.93976 0.99977
3959.51136 0.99974
3958.08297 0.99971
3956.65457 0.99968
3955.22618 0.99966
3953.79778 0.99965
3952.36939 0.99964
3950.94099 0.99963
3949.51260 0.99963
3948.08420 0.99964
3946.65581 0.99965
3945.22741 0.99966
3943.79901 0.99967
3942.37062 0.99968
3940.94222 0.99970
3939.51383 0.99971
3938.08543 0.99971
3936.65704 0.99971
3935.22864 0.99971
3933.80025 0.99970
3932.37185 0.99970
3930.94346 0.99968
3929.51506 0.99966
3928.08667 0.99963
3926.65827 0.99961
3925.22988 0.99958
3923.80148 0.99956
3922.37309 0.99954
3920.94469 0.99953
3919.51630 0.99953
3918.08790 0.99953
3916.65951 0.99953
3915.23111 0.99953
3913.80272 0.99953
3912.37432 0.99953
3910.94593 0.99952
3909.51753 0.99951
3908.08914 0.99950
3906.66074 0.99948
3905.23235 0.99946
3903.80395 0.99944
3902.37556 0.99942
3900.94716 0.99940
3899.51877 0.99939
3898.09037 0.99939
3896.66197 0.99939
3895.23358 0.99940
3893.80518 0.99941
3892.37679 0.99942
3890.94839 0.99944
3889.52000 0.99945
3888.09160 0.99946
3886.66321 0.99946
3885.23481 0.99946
3883.80642 0.99945
3882.37802 0.99945
3880.94963 0.99943
3879.52123 0.99942
3878.09284 0.99941
3876.66444 0.99940
3875.23605 0.99939
3873.80765 0.99937
3872.37926 0.99936
3870.95086 0.99936
3869.52247 0.99936
3868.09407 0.99936
3866.66568 0.99936
3865.23728 0.99937
3863.80889 0.99938
3862.38049 0.99940
3860.95210 0.99943
3859.52370 0.99946
3858.09531 0.99948
3856.66691 0.99951
3855.23852 0.99952
3853.81012 0.99953
3852.38173 0.99952
3850.95333 0.99951
3849.52493 0.99950
3848.09654 0.99948
3846.66814 0.99946
3845.23975 0.99944
3843.81135 0.99942
3842.38296 0.99940
3840.95456 0.99939
3839.52617 0.99939
3838.09777 0.99939
3836.66938 0.99940
3835.24098 0.99940
3833.81259 0.99939
3832.38419 0.99939
3830.95580 0.99937
3829.52740 0.99935
3828.09901 0.99933
3826.67061 0.99932
3825.24222 0.99930
3823.81382 0.99928
3822.38543 0.99926
3820.95703 0.99925
3819.52864 0.99925
3818.10024 0.99926
3816.67185 0.99927
3815.24345 0.99928
3813.81506 0.99929
3812.38666 0.99929
3810.95827 0.99929
3809.52987 0.99927
3808.10148 0.99926
3806.67308 0.99923
3805.24469 0.99920
3803.81629 0.99916
3802.38789 0.99913
3800.95950 0.99909
3799.53110 0.99906
3798.10271 0.99905
3796.67431 0.99905
3795.24592 0.99905
3793.81752 0.99906
3792.38913 0.99907
3790.96073 0.99907
3789.53234 0.99907
3788.10394 0.99907
3786.67555 0.99906
3785.24715 0.99905
3783.81876 0.99904
3782.39036 0.99902
3780.96197 0.99900
3779.53357 0.99899
3778.10518 0.99899
3776.67678 0.99899
3775.24839 0.99899
3773.81999 0.99900
3772.39160 0.99900
3770.96320 0.99900
3769.53481 0.99899
3768.10641 0.99897
3766.67802 0.99894
3765.24962 0.99892
3763.82123 0.99888
3762.39283 0.99885
3760.96444 0.99881
3759.53604 0.99878
3758.10765 0.99874
3756.67925 0.99871
3755.25085 0.99868
3753.82246 0.99865
3752.39406 0.99862
3750.96567 0.99860
3749.53727 0.99857
3748.10888 0.99855
3746.68048 0.99852
3745.25209 0.99849
3743.82369 0.99847
3742.39530 0.99843
3740.96690 0.99839
3739.53851 0.99834
3738.11011 0.99827
3736.68172 0.99821
3735.25332 0.99814
3733.82493 0.99806
3732.39653 0.99800
3730.96814 0.99794
3729.53974 0.99789
3728.11135 0.99787
3726.68295 0.99787
3725.25456 0.99789
3723.82616 0.99794
3722.39777 0.99801
3720.96937 0.99809
3719.54098 0.99818
3718.11258 0.99826
3716.68419 0.99833
3715.25579 0.99839
3713.82740 0.99842
3712.39900 0.99844
3710.97061 0.99843
3709.54221 0.99841
3708.11381 0.99839
3706.68542 0.99836
3705.25702 0.99833
3703.82863 0.99832
3702.40023 0.99832
3700.97184 0.99833
3699.54344 0.99836
3698.11505 0.99841
3696.68665 0.99846
3695.25826 0.99853
3693.82986 0.99860
3692.40147 0.99869
3690.97307 0.99878
3689.54468 0.99888
3688.11628 0.99897
3686.68789 0.99906
3685.25949 0.99914
3683.83110 0.99921
3682.40270 0.99928
3680.97431 0.99933
3679.54591 0.99937
3678.11752 0.99941
3676.68912 0.99944
3675.26073 0.99948
3673.83233 0.99951
3672.40394 0.99956
3670.97554 0.99961
3669.54715 0.99968
3668.11875 0.99976
3666.69036 0.99983
3665.26196 0.99990
3663.83357 0.99996
3662.40517 1.00000
3660.97677 1.00002
3659.54838 1.00004
3658.11998 1.00004
3656.69159 1.00003
3655.26319 1.00002
3653.83480 1.00000
3652.40640 0.99998
3650.97801 0.99997
3649.54961 0.99996
3648.12122 0.99997
3646.69282 0.99998
3645.26443 0.99999
3643.83603 1.00000
3642.40764 1.00000
3640.97924 0.99999
3639.55085 0.99997
3638.12245 0.99994
3636.69406 0.99990
3635.26566 0.99986
3633.83727 0.99982
3632.40887 0.99978
3630.98048 0.99975
3629.55208 0.99972
3628.12369 0.99972
3626.69529 0.99972
3625.26690 0.99975
3623.83850 0.99979
3622.41011 0.99983
3620.98171 0.99986
3619.55332 0.99990
3618.12492 0.99992
3616.69653 0.99993
3615.26813 0.99992
3613.83973 0.99991
3612.41134 0.99987
3610.98294 0.99982
3609.55455 0.99976
3608.12615 0.99969
3606.69776 0.99962
3605.26936 0.99956
3603.84097 0.99950
3602.41257 0.99945
3600.98418 0.99940
3599.55578 0.99937
3598.12739 0.99934
3596.69899 0.99932
3595.27060 0.99931
3593.84220 0.99930
3592.41381 0.99929
3590.98541 0.99929
3589.55702 0.99929
3588.12862 0.99929
3586.70023 0.99929
3585.27183 0.99931
3583.84344 0.99932
3582.41504 0.99934
3580.98665 0.99936
3579.55825 0.99937
3578.12986 0.99939
3576.70146 0.99940
3575.27307 0.99941
3573.84467 0.99941
3572.41628 0.99941
3570.98788 0.99940
3569.55949 0.99939
3568.13109 0.99937
3566.70269 0.99935
3565.27430 0.99932
3563.84590 0.99929
3562.41751 0.99925
3560.98911 0.99922
3559.56072 0.99918
3558.13232 0.99914
3556.70393 0.99910
3555.27553 0.99907
3553.84714 0.99903
3552.41874 0.99899
3550.99035 0.99896
3549.56195 0.99894
3548.13356 0.99892
3546.70516 0.99891
3545.27677 0.99890
3543.84837 0.99890
3542.41998 0.99890
3540.99158 0.99891
3539.56319 0.99892
3538.13479 0.99893
3536.70640 0.99895
3535.27800 0.99896
3533.84961 0.99896
3532.42121 0.99895
3530.99282 0.99893
3529.56442 0.99891
3528.13603 0.99887
3526.70763 0.99884
3525.27924 0.99881
3523.85084 0.99877
3522.42245 0.99875
3520.99405 0.99873
3519.56565 0.99872
3518.13726 0.99872
3516.70886 0.99874
3515.28047 0.99877
3513.85207 0.99880
3512.42368 0.99884
3510.99528 0.99887
3509.56689 0.99890
3508.13849 0.99893
3506.71010 0.99895
3505.28170 0.99896
3503.85331 0.99896
3502.42491 0.99896
3500.99652 0.99895
3499.56812 0.99894
3498.13973 0.99891
3496.71133 0.99888
3495.28294 0.99884
3493.85454 0.99881
3492.42615 0.99879
3490.99775 0.99877
3489.56936 0.99876
3488.14096 0.99877
3486.71257 0.99879
3485.28417 0.99883
3483.85578 0.99887
3482.42738 0.99892
3480.99899 0.99897
3479.57059 0.99901
3478.14220 0.99905
3476.71380 0.99907
3475.28541 0.99908
3473.85701 0.99909
3472.42861 0.99908
3471.00022 0.99908
3469.57182 0.99906
3468.14343 0.99905
3466.71503 0.99905
3465.28664 0.99905
3463.85824 0.99906
3462.42985 0.99908
3461.00145 0.99910
3459.57306 0.99912
3458.14466 0.99913
3456.71627 0.99914
3455.28787 0.99915
3453.85948 0.99916
3452.43108 0.99917
3451.00269 0.99919
3449.57429 0.99922
3448.14590 0.99924
3446.71750 0.99927
3445.28911 0.99930
3443.86071 0.99933
3442.43232 0.99936
3441.00392 0.99939
3439.57553 0.99942
3438.14713 0.99943
3436.71874 0.99944
3435.29034 0.99944
3433.86195 0.99944
3432.43355 0.99945
3431.00516 0.99946
3429.57676 0.99948
3428.14837 0.99951
3426.71997 0.99954
3425.29157 0.99957
3423.86318 0.99960
3422.43478 0.99963
3421.00639 0.99966
3419.57799 0.99968
3418.14960 0.99969
3416.72120 0.99969
3415.29281 0.99968
3413.86441 0.99967
3412.43602 0.99966
3411.00762 0.99965
3409.57923 0.99965
3408.15083 0.99966
3406.72244 0.99967
3405.29404 0.99969
3403.86565 0.99971
3402.43725 0.99972
3401.00886 0.99973
3399.58046 0.99974
3398.15207 0.99975
3396.72367 0.99976
3395.29528 0.99977
3393.86688 0.99977
3392.43849 0.99979
3391.01009 0.99980
3389.58170 0.99982
3388.15330 0.99984
3386.72491 0.99988
3385.29651 0.99992
3383.86812 0.99995
3382.43972 0.99998
3381.01133 1.00000
3379.58293 1.00000
3378.15453 1.00000
3376.72614 0.99998
3375.29774 0.99997
3373.86935 0.99994
3372.44095 0.99992
3371.01256 0.99990
3369.58416 0.99987
3368.15577 0.99986
3366.72737 0.99986
3365.29898 0.99986
3363.87058 0.99987
3362.44219 0.99988
3361.01379 0.99989
3359.58540 0.99988
3358.15700 0.99987
3356.72861 0.99986
3355.30021 0.99984
3353.87182 0.99982
3352.44342 0.99979
3351.01503 0.99977
3349.58663 0.99974
3348.15824 0.99973
3346.72984 0.99971
3345.30145 0.99970
3343.87305 0.99970
3342.44466 0.99969
3341.01626 0.99968
3339.58787 0.99966
3338.15947 0.99963
3336.73108 0.99960
3335.30268 0.99956
3333.87428 0.99952
3332.44589 0.99947
3331.01749 0.99942
3329.58910 0.99937
3328.16070 0.99933
3326.73231 0.99929
3325.30391 0.99926
3323.87552 0.99923
3322.44712 0.99921
3321.01873 0.99919
3319.59033 0.99918
3318.16194 0.99917
3316.73354 0.99917
3315.30515 0.99918
3313.87675 0.99918
3312.44836 0.99919
3311.01996 0.99919
3309.59157 0.99920
3308.16317 0.99919
3306.73478 0.99919
3305.30638 0.99918
3303.87799 0.99917
3302.44959 0.99916
3301.02120 0.99914
3299.59280 0.99912
3298.16441 0.99909
3296.73601 0.99907
3295.30762 0.99904
3293.87922 0.99902
3292.45083 0.99899
3291.02243 0.99895
3289.59404 0.99892
3288.16564 0.99889
3286.73724 0.99886
3285.30885 0.99884
3283.88045 0.99883
3282.45206 0.99884
3281.02366 0.99885
3279.59527 0.99887
3278.16687 0.99889
3276.73848 0.99893
3275.31008 0.99897
3273.88169 0.99902
3272.45329 0.99907
3271.02490 0.99911
3269.59650 0.99915
3268.16811 0.99919
3266.73971 0.99922
3265.31132 0.99926
3263.88292 0.99929
3262.45453 0.99932
3261.02613 0.99935
3259.59774 0.99937
3258.16934 0.99939
3256.74095 0.99941
3255.31255 0.99942
3253.88416 0.99943
3252.45576 0.99944
3251.02737 0.99944
3249.59897 0.99945
3248.17058 0.99946
3246.74218 0.99947
3245.31379 0.99950
3243.88539 0.99954
3242.45700 0.99959
3241.02860 0.99964
3239.60020 0.99970
3238.17181 0.99977
3236.74341 0.99983
3235.31502 0.99989
3233.88662 0.99994
3232.45823 0.99998
3231.02983 1.00000
3229.60144 1.00000
3228.17304 0.99998
3226.74465 0.99995
3225.31625 0.99991
3223.88786 0.99986
3222.45946 0.99981
3221.03107 0.99975
3219.60267 0.99971
3218.17428 0.99967
3216.74588 0.99965
3215.31749 0.99965
3213.88909 0.99966
3212.46070 0.99969
3211.03230 0.99973
3209.60391 0.99977
3208.17551 0.99982
3206.74712 0.99987
3205.31872 0.99992
3203.89033 0.99996
3202.46193 0.99998
3201.03354 1.00000
3199.60514 1.00000
3198.17675 1.00000
3196.74835 0.99999
3195.31996 0.99997
3193.89156 0.99994
3192.46316 0.99992
3191.03477 0.99990
3189.60637 0.99989
3188.17798 0.99989
3186.74958 0.99989
3185.32119 0.99989
3183.89279 0.99989
3182.46440 0.99988
3181.03600 0.99986
3179.60761 0.99984
3178.17921 0.99980
3176.75082 0.99975
3175.32242 0.99969
3173.89403 0.99963
3172.46563 0.99956
3171.03724 0.99949
3169.60884 0.99943
3168.18045 0.99938
3166.75205 0.99933
3165.32366 0.99930
3163.89526 0.99928
3162.46687 0.99926
3161.03847 0.99926
3159.61008 0.99925
3158.18168 0.99924
3156.75329 0.99924
3155.32489 0.99923
3153.89650 0.99923
3152.46810 0.99922
3151.03971 0.99921
3149.61131 0.99919
3148.18292 0.99917
3146.75452 0.99914
3145.32612 0.99912
3143.89773 0.99909
3142.46933 0.99906
3141.04094 0.99902
3139.61254 0.99897
3138.18415 0.99893
3136.75575 0.99888
3135.32736 0.99884
3133.89896 0.99880
3132.47057 0.99877
3131.04217 0.99876
3129.61378 0.99875
3128.18538 0.99875
3126.75699 0.99876
3125.32859 0.99876
3123.90020 0.99877
3122.47180 0.99877
3121.04341 0.99877
3119.61501 0.99875
3118.18662 0.99872
3116.75822 0.99868
3115.32983 0.99863
3113.90143 0.99858
3112.47304 0.99853
3111.04464 0.99849
3109.61625 0.99846
3108.18785 0.99844
3106.75946 0.99843
3105.33106 0.99843
3103.90267 0.99844
3102.47427 0.99845
3101.04588 0.99845
3099.61748 0.99846
3098.18908 0.99845
3096.76069 0.99844
3095.33229 0.99842
3093.90390 0.99840
3092.47550 0.99837
3091.04711 0.99835
3089.61871 0.99833
3088.19032 0.99832
3086.76192 0.99832
3085.33353 0.99833
3083.90513 0.99835
3082.47674 0.99837
3081.04834 0.99839
3079.61995 0.99841
3078.19155 0.99842
3076.76316 0.99843
3075.33476 0.99843
3073.90637 0.99842
3072.47797 0.99841
3071.04958 0.99840
3069.62118 0.99839
3068.19279 0.99838
3066.76439 0.99837
3065.33600 0.99837
3063.90760 0.99838
3062.47921 0.99839
3061.05081 0.99841
3059.62242 0.99843
3058.19402 0.99846
3056.76563 0.99849
3055.33723 0.99852
3053.90884 0.99854
3052.48044 0.99856
3051.05204 0.99857
3049.62365 0.99859
3048.19525 0.99861
3046.76686 0.99863
3045.33846 0.99866
3043.91007 0.99868
3042.48167 0.99871
3041.05328 0.99873
3039.62488 0.99876
3038.19649 0.99879
3036.76809 0.99882
3035.33970 0.99886
3033.91130 0.99889
3032.48291 0.99893
3031.05451 0.99897
3029.62612 0.99901
3028.19772 0.99905
3026.76933 0.99910
3025.34093 0.99915
3023.91254 0.99920
3022.48414 0.99925
3021.05575 0.99929
3019.62735 0.99932
3018.19896 0.99936
3016.77056 0.99938
3015.34217 0.99941
3013.91377 0.99943
3012.48538 0.99946
3011.05698 0.99949
3009.62859 0.99952
3008.20019 0.99955
3006.77180 0.99958
3005.34340 0.99962
3003.91500 0.99966
3002.48661 0.99970
3001.05821 0.99973
2999.62982 0.99976
2998.20142 0.99977
2996.77303 0.99977
2995.34463 0.99976
2993.91624 0.99974
2992.48784 0.99970
2991.05945 0.99965
2989.63105 0.99958
2988.20266 0.99949
2986.77426 0.99938
2985.34587 0.99926
2983.91747 0.99913
2982.48908 0.99898
2981.06068 0.99883
2979.63229 0.99867
2978.20389 0.99850
2976.77550 0.99833
2975.34710 0.99816
2973.91871 0.99799
2972.49031 0.99781
2971.06192 0.99763
2969.63352 0.99745
2968.20513 0.99726
2966.77673 0.99706
2965.34834 0.99686
2963.91994 0.99666
2962.49155 0.99645
2961.06315 0.99625
2959.63476 0.99604
2958.20636 0.99585
2956.77796 0.99566
2955.34957 0.99548
2953.92117 0.99532
2952.49278 0.99516
2951.06438 0.99503
2949.63599 0.99491
2948.20759 0.99481
2946.77920 0.99473
2945.35080 0.99467
2943.92241 0.99463
2942.49401 0.99461
2941.06562 0.99462
2939.63722 0.99464
2938.20883 0.99469
2936.78043 0.99475
2935.35204 0.99484
2933.92364 0.99493
2932.49525 0.99504
2931.06685 0.99516
2929.63846 0.99528
2928.21006 0.99540
2926.78167 0.99552
2925.35327 0.99564
2923.92488 0.99575
2922.49648 0.99585
2921.06809 0.99594
2919.63969 0.99601
2918.21130 0.99608
2916.78290 0.99613
2915.35451 0.99617
2913.92611 0.99621
2912.49772 0.99623
2911.06932 0.99625
2909.64092 0.99626
2908.21253 0.99626
2906.78413 0.99626
2905.35574 0.99625
2903.92734 0.99623
2902.49895 0.99621
2901.07055 0.99618
2899.64216 0.99615
2898.21376 0.99612
2896.78537 0.99610
2895.35697 0.99608
2893.92858 0.99607
2892.50018 0.99608
2891.07179 0.99611
2889.64339 0.99615
2888.21500 0.99620
2886.78660 0.99627
2885.35821 0.99635
2883.92981 0.99643
2882.50142 0.99651
2881.07302 0.99658
2879.64463 0.99666
2878.21623 0.99672
2876.78784 0.99678
2875.35944 0.99683
2873.93105 0.99688
2872.50265 0.99692
2871.07426 0.99696
2869.64586 0.99700
2868.21747 0.99703
2866.78907 0.99707
2865.36068 0.99712
2863.93228 0.99716
2862.50388 0.99721
2861.07549 0.99725
2859.64709 0.99730
2858.21870 0.99735
2856.79030 0.99739
2855.36191 0.99743
2853.93351 0.99747
2852.50512 0.99750
2851.07672 0.99753
2849.64833 0.99755
2848.21993 0.99756
2846.79154 0.99757
2845.36314 0.99759
2843.93475 0.99760
2842.50635 0.99762
2841.07796 0.99765
2839.64956 0.99768
2838.22117 0.99772
2836.79277 0.99777
2835.36438 0.99783
2833.93598 0.99789
2832.50759 0.99796
2831.07919 0.99803
2829.65080 0.99809
2828.22240 0.99815
2826.79401 0.99821
2825.36561 0.99826
2823.93722 0.99831
2822.50882 0.99835
2821.08043 0.99840
2819.65203 0.99844
2818.22364 0.99848
2816.79524 0.99852
2815.36684 0.99856
2813.93845 0.99861
2812.51005 0.99865
2811.08166 0.99869
2809.65326 0.99873
2808.22487 0.99877
2806.79647 0.99881
2805.36808 0.99885
2803.93968 0.99888
2802.51129 0.99891
2801.08289 0.99894
2799.65450 0.99897
2798.22610 0.99899
2796.79771 0.99902
2795.36931 0.99904
2793.94092 0.99906
2792.51252 0.99907
2791.08413 0.99909
2789.65573 0.99910
2788.22734 0.99911
2786.79894 0.99912
2785.37055 0.99913
2783.94215 0.99914
2782.51376 0.99915
2781.08536 0.99915
2779.65697 0.99917
2778.22857 0.99918
2776.80018 0.99921
2775.37178 0.99923
2773.94339 0.99926
2772.51499 0.99929
2771.08660 0.99931
2769.65820 0.99934
2768.22980 0.99936
2766.80141 0.99938
2765.37301 0.99939
2763.94462 0.99939
2762.51622 0.99939
2761.08783 0.99938
2759.65943 0.99938
2758.23104 0.99937
2756.80264 0.99937
2755.37425 0.99937
2753.94585 0.99938
2752.51746 0.99939
2751.08906 0.99940
2749.66067 0.99941
2748.23227 0.99943
2746.80388 0.99945
2745.37548 0.99946
2743.94709 0.99948
2742.51869 0.99950
2741.09030 0.99951
2739.66190 0.99952
2738.23351 0.99953
2736.80511 0.99954
2735.37672 0.99955
2733.94832 0.99955
2732.51993 0.99956
2731.09153 0.99956
2729.66314 0.99956
2728.23474 0.99956
2726.80635 0.99956
2725.37795 0.99956
2723.94956 0.99956
2722.52116 0.99956
2721.09276 0.99956
2719.66437 0.99957
2718.23597 0.99958
2716.80758 0.99959
2715.37918 0.99960
2713.95079 0.99961
2712.52239 0.99961
2711.09400 0.99962
2709.66560 0.99962
2708.23721 0.99962
2706.80881 0.99961
2705.38042 0.99961
2703.95202 0.99960
2702.52363 0.99958
2701.09523 0.99957
2699.66684 0.99957
2698.23844 0.99956
2696.81005 0.99956
2695.38165 0.99956
2693.95326 0.99957
2692.52486 0.99957
2691.09647 0.99957
2689.66807 0.99956
2688.23968 0.99956
2686.81128 0.99955
2685.38289 0.99954
2683.95449 0.99953
2682.52610 0.99952
2681.09770 0.99951
2679.66931 0.99950
2678.24091 0.99949
2676.81252 0.99948
2675.38412 0.99948
2673.95572 0.99947
2672.52733 0.99947
2671.09893 0.99948
2669.67054 0.99948
2668.24214 0.99949
2666.81375 0.99950
2665.38535 0.99951
2663.95696 0.99953
2662.52856 0.99956
2661.10017 0.99958
2659.67177 0.99961
2658.24338 0.99963
2656.81498 0.99966
2655.38659 0.99969
2653.95819 0.99971
2652.52980 0.99973
2651.10140 0.99975
2649.67301 0.99976
2648.24461 0.99977
2646.81622 0.99977
2645.38782 0.99977
2643.95943 0.99977
2642.53103 0.99977
2641.10264 0.99977
2639.67424 0.99977
2638.24585 0.99977
2636.81745 0.99977
2635.38906 0.99978
2633.96066 0.99978
2632.53227 0.99979
2631.10387 0.99980
2629.67548 0.99981
2628.24708 0.99982
2626.81868 0.99983
2625.39029 0.99983
2623.96189 0.99984
2622.53350 0.99985
2621.10510 0.99986
2619.67671 0.99988
2618.24831 0.99989
2616.81992 0.99991
2615.39152 0.99993
2613.96313 0.99995
2612.53473 0.99997
2611.10634 0.99999
2609.67794 0.99999
2608.24955 1.00000
2606.82115 1.00000
2605.39276 1.00000
2603.96436 1.00000
2602.53597 1.00000
2601.10757 1.00000
2599.67918 1.00000
2598.25078 0.99999
2596.82239 0.99999
2595.39399 0.99999
2593.96560 0.99998
2592.53720 0.99997
2591.10881 0.99997
2589.68041 0.99996
2588.25202 0.99995
2586.82362 0.99994
2585.39523 0.99993
2583.96683 0.99992
2582.53843 0.99992
2581.11004 0.99992
2579.68164 0.99992
2578.25325 0.99992
2576.82485 0.99993
2575.39646 0.99993
2573.96806 0.99993
2572.53967 0.99993
2571.11127 0.99994
2569.68288 0.99994
2568.25448 0.99994
2566.82609 0.99995
2565.39769 0.99995
2563.96930 0.99994
2562.54090 0.99994
2561.11251 0.99994
2559.68411 0.99993
2558.25572 0.99992
2556.82732 0.99992
2555.39893 0.99992
2553.97053 0.99992
2552.54214 0.99992
2551.11374 0.99993
2549.68535 0.99994
2548.25695 0.99996
2546.82856 0.99997
2545.40016 0.99999
2543.97177 1.00000
2542.54337 1.00000
2541.11498 1.00000
2539.68658 0.99999
2538.25819 0.99998
2536.82979 0.99996
2535.40139 0.99994
2533.97300 0.99992
2532.54460 0.99990
2531.11621 0.99989
2529.68781 0.99988
2528.25942 0.99987
2526.83102 0.99986
2525.40263 0.99986
2523.97423 0.99986
2522.54584 0.99986
2521.11744 0.99986
2519.68905 0.99987
2518.26065 0.99988
2516.83226 0.99990
2515.40386 0.99991
2513.97547 0.99992
2512.54707 0.99993
2511.11868 0.99993
2509.69028 0.99993
2508.26189 0.99993
2506.83349 0.99993
2505.40510 0.99992
2503.97670 0.99991
2502.54831 0.99990
2501.11991 0.99989
2499.69152 0.99989
2498.26312 0.99989
2496.83473 0.99991
2495.40633 0.99992
2493.97794 0.99994
2492.54954 0.99995
2491.12115 0.99995
2489.69275 0.99994
2488.26435 0.99993
2486.83596 0.99992
2485.40756 0.99990
2483.97917 0.99989
2482.55077 0.99987
2481.12238 0.99986
2479.69398 0.99986
2478.26559 0.99987
2476.83719 0.99988
2475.40880 0.99990
2473.98040 0.99992
2472.55201 0.99994
2471.12361 0.99996
2469.69522 0.99998
2468.26682 0.99999
2466.83843 1.00000
2465.41003 1.00000
2463.98164 1.00000
2462.55324 1.00000
2461.12485 1.00000
2459.69645 1.00000
2458.26806 1.00000
2456.83966 0.99999
2455.41127 0.99999
2453.98287 0.99998
2452.55448 0.99998
2451.12608 0.99997
2449.69769 0.99997
2448.26929 0.99996
2446.84090 0.99996
2445.41250 0.99995
2443.98411 0.99994
2442.55571 0.99994
2441.12731 0.99994
2439.69892 0.99994
2438.27052 0.99994
2436.84213 0.99995
2435.41373 0.99996
2433.98534 0.99996
2432.55694 0.99997
2431.12855 0.99997
2429.70015 0.99998
2428.27176 0.99998
2426.84336 0.99998
2425.41497 0.99998
2423.98657 0.99997
2422.55818 0.99997
2421.12978 0.99996
2419.70139 0.99996
2418.27299 0.99996
2416.84460 0.99997
2415.41620 0.99997
2413.98781 0.99998
2412.55941 0.99998
2411.13102 0.99999
2409.70262 0.99999
2408.27423 1.00000
2406.84583 1.00000
2405.41744 1.00000
2403.98904 1.00000
2402.56065 1.00000
2401.13225 1.00000
2399.70386 1.00000
2398.27546 1.00001
2396.84707 1.00001
2395.41867 1.00001
2393.99027 1.00002
2392.56188 1.00002
2391.13348 1.00003
2389.70509 1.00003
2388.27669 1.00003
2386.84830 1.00004
2385.41990 1.00004
2383.99151 1.00004
2382.56311 1.00005
2381.13472 1.00005
2379.70632 1.00005
2378.27793 1.00005
2376.84953 1.00006
2375.42114 1.00006
2373.99274 1.00006
2372.56435 1.00006
2371.13595 1.00007
2369.70756 1.00007
2368.27916 1.00007
2366.85077 1.00007
2365.42237 1.00007
2363.99398 1.00008
2362.56558 1.00008
2361.13719 1.00008
2359.70879 1.00008
2358.28040 1.00008
2356.85200 1.00008
2355.42361 1.00009
2353.99521 1.00009
2352.56682 1.00009
2351.13842 1.00009
2349.71003 1.00009
2348.28163 1.00009
2346.85323 1.00009
2345.42484 1.00009
2343.99644 1.00009
2342.56805 1.00009
2341.13965 1.00009
2339.71126 1.00009
2338.28286 1.00009
2336.85447 1.00009
2335.42607 1.00009
2333.99768 1.00009
2332.56928 1.00009
2331.14089 1.00009
2329.71249 1.00009
2328.28410 1.00009
2326.85570 1.00009
2325.42731 1.00009
2323.99891 1.00009
2322.57052 1.00009
2321.14212 1.00009
2319.71373 1.00009
2318.28533 1.00009
2316.85694 1.00008
2315.42854 1.00008
2314.00015 1.00008
2312.57175 1.00008
2311.14336 1.00008
2309.71496 1.00008
2308.28657 1.00007
2306.85817 1.00007
2305.42978 1.00007
2304.00138 1.00007
2302.57299 1.00007
2301.14459 1.00006
2299.71619 1.00006
2298.28780 1.00006
2296.85940 1.00006
2295.43101 1.00005
2294.00261 1.00005
2292.57422 1.00005
2291.14582 1.00004
2289.71743 1.00004
2288.28903 1.00004
2286.86064 1.00003
2285.43224 1.00003
2284.00385 1.00003
2282.57545 1.00002
2281.14706 1.00002
2279.71866 1.00002
2278.29027 1.00001
2276.86187 1.00001
2275.43348 1.00000
2274.00508 1.00000
2272.57669 1.00000
2271.14829 0.99999
2269.71990 0.99999
2268.29150 0.99999
2266.86311 0.99998
2265.43471 0.99998
2264.00632 0.99997
2262.57792 0.99997
2261.14953 0.99997
2259.72113 0.99996
2258.29274 0.99996
2256.86434 0.99995
2255.43595 0.99995
2254.00755 0.99994
2252.57915 0.99994
2251.15076 0.99993
2249.72236 0.99993
2248.29397 0.99992
2246.86557 0.99992
2245.43718 0.99991
2244.00878 0.99991
2242.58039 0.99990
2241.15199 0.99990
2239.72360 0.99989
2238.29520 0.99988
2236.86681 0.99988
2235.43841 0.99987
2234.01002 0.99987
2232.58162 0.99986
2231.15323 0.99985
2229.72483 0.99984
2228.29644 0.99983
2226.86804 0.99982
2225.43965 0.99981
2224.01125 0.99981
2222.58286 0.99980
2221.15446 0.99980
2219.72607 0.99981
2218.29767 0.99982
2216.86928 0.99983
2215.44088 0.99986
2214.01249 0.99989
2212.58409 0.99992
2211.15570 0.99995
2209.72730 0.99998
2208.29891 0.99999
2206.87051 1.00000
2205.44211 1.00000
2204.01372 0.99999
2202.58532 0.99997
2201.15693 0.99994
2199.72853 0.99989
2198.30014 0.99985
2196.87174 0.99980
2195.44335 0.99977
2194.01495 0.99975
2192.58656 0.99975
2191.15816 0.99975
2189.72977 0.99977
2188.30137 0.99980
2186.87298 0.99983
2185.44458 0.99986
2184.01619 0.99990
2182.58779 0.99992
2181.15940 0.99993
2179.73100 0.99994
2178.30261 0.99993
2176.87421 0.99991
2175.44582 0.99989
2174.01742 0.99989
2172.58903 0.99989
2171.16063 0.99991
2169.73224 0.99993
2168.30384 0.99995
2166.87545 0.99997
2165.44705 0.99999
2164.01866 1.00000
2162.59026 0.99999
2161.16187 0.99996
2159.73347 0.99992
2158.30507 0.99985
2156.87668 0.99977
2155.44828 0.99968
2154.01989 0.99960
2152.59149 0.99952
2151.16310 0.99945
2149.73470 0.99940
2148.30631 0.99936
2146.87791 0.99934
2145.44952 0.99934
2144.02112 0.99936
2142.59273 0.99938
2141.16433 0.99941
2139.73594 0.99943
2138.30754 0.99946
2136.87915 0.99949
2135.45075 0.99952
2134.02236 0.99954
2132.59396 0.99956
2131.16557 0.99958
2129.73717 0.99961
2128.30878 0.99963
2126.88038 0.99965
2125.45199 0.99967
2124.02359 0.99969
2122.59520 0.99970
2121.16680 0.99971
2119.73841 0.99971
2118.31001 0.99971
2116.88162 0.99969
2115.45322 0.99967
2114.02483 0.99965
2112.59643 0.99962
2111.16803 0.99959
2109.73964 0.99957
2108.31124 0.99955
2106.88285 0.99955
2105.45445 0.99954
2104.02606 0.99954
2102.59766 0.99955
2101.16927 0.99956
2099.74087 0.99957
2098.31248 0.99959
2096.88408 0.99961
2095.45569 0.99962
2094.02729 0.99963
2092.59890 0.99963
2091.17050 0.99963
2089.74211 0.99962
2088.31371 0.99961
2086.88532 0.99960
2085.45692 0.99960
2084.02853 0.99959
2082.60013 0.99959
2081.17174 0.99960
2079.74334 0.99961
2078.31495 0.99963
2076.88655 0.99965
2075.45816 0.99966
2074.02976 0.99968
2072.60137 0.99968
2071.17297 0.99968
2069.74458 0.99966
2068.31618 0.99964
2066.88779 0.99963
2065.45939 0.99962
2064.03099 0.99961
2062.60260 0.99962
2061.17420 0.99963
2059.74581 0.99965
2058.31741 0.99968
2056.88902 0.99971
2055.46062 0.99973
2054.03223 0.99974
2052.60383 0.99974
2051.17544 0.99971
2049.74704 0.99967
2048.31865 0.99962
2046.89025 0.99956
2045.46186 0.99950
2044.03346 0.99945
2042.60507 0.99942
2041.17667 0.99941
2039.74828 0.99943
2038.31988 0.99947
2036.89149 0.99954
2035.46309 0.99963
2034.03470 0.99972
2032.60630 0.99982
2031.17791 0.99990
2029.74951 0.99996
2028.32112 1.00000
2026.89272 1.00000
2025.46433 0.99997
2024.03593 0.99990
2022.60754 0.99979
2021.17914 0.99966
2019.75075 0.99950
2018.32235 0.99935
2016.89395 0.99921
2015.46556 0.99910
2014.03716 0.99902
2012.60877 0.99898
2011.18037 0.99898
2009.75198 0.99902
2008.32358 0.99908
2006.89519 0.99917
2005.46679 0.99926
2004.03840 0.99935
2002.61000 0.99942
2001.18161 0.99946
1999.75321 0.99948
1998.32482 0.99946
1996.89642 0.99942
1995.46803 0.99935
1994.03963 0.99927
1992.61124 0.99920
1991.18284 0.99912
1989.75445 0.99904
1988.32605 0.99897
1986.89766 0.99890
1985.46926 0.99885
1984.04087 0.99882
1982.61247 0.99880
1981.18408 0.99881
1979.75568 0.99883
1978.32729 0.99888
1976.89889 0.99894
1975.47050 0.99902
1974.04210 0.99910
1972.61371 0.99919
1971.18531 0.99927
1969.75691 0.99935
1968.32852 0.99941
1966.90012 0.99946
1965.47173 0.99948
1964.04333 0.99948
1962.61494 0.99945
1961.18654 0.99941
1959.75815 0.99936
1958.32975 0.99931
1956.90136 0.99926
1955.47296 0.99920
1954.04457 0.99915
1952.61617 0.99911
1951.18778 0.99907
1949.75938 0.99904
1948.33099 0.99901
1946.90259 0.99900
1945.47420 0.99899
1944.04580 0.99899
1942.61741 0.99898
1941.18901 0.99896
1939.76062 0.99895
1938.33222 0.99893
1936.90383 0.99892
1935.47543 0.99891
1934.04704 0.99891
1932.61864 0.99891
1931.19025 0.99891
1929.76185 0.99892
1928.33346 0.99893
1926.90506 0.99895
1925.47667 0.99897
1924.04827 0.99899
1922.61987 0.99901
1921.19148 0.99903
1919.76308 0.99904
1918.33469 0.99905
1916.90629 0.99904
1915.47790 0.99904
1914.04950 0.99903
1912.62111 0.99902
1911.19271 0.99901
1909.76432 0.99900
1908.33592 0.99899
1906.90753 0.99898
1905.47913 0.99897
1904.05074 0.99896
1902.62234 0.99896
1901.19395 0.99896
1899.76555 0.99896
1898.33716 0.99897
1896.90876 0.99896
1895.48037 0.99896
1894.05197 0.99895
1892.62358 0.99895
1891.19518 0.99894
1889.76679 0.99894
1888.33839 0.99894
1886.91000 0.99893
1885.48160 0.99892
1884.05321 0.99890
1882.62481 0.99888
1881.19642 0.99887
1879.76802 0.99885
1878.33963 0.99884
1876.91123 0.99883
1875.48283 0.99881
1874.05444 0.99880
1872.62604 0.99878
1871.19765 0.99878
1869.76925 0.99878
1868.34086 0.99879
1866.91246 0.99881
1865.48407 0.99882
1864.05567 0.99884
1862.62728 0.99885
1861.19888 0.99887
1859.77049 0.99887
1858.34209 0.99888
1856.91370 0.99888
1855.48530 0.99888
1854.05691 0.99887
1852.62851 0.99885
1851.20012 0.99884
1849.77172 0.99882
1848.34333 0.99880
1846.91493 0.99879
1845.48654 0.99878
1844.05814 0.99878
1842.62975 0.99879
1841.20135 0.99879
1839.77296 0.99880
1838.34456 0.99881
1836.91617 0.99882
1835.48777 0.99882
1834.05938 0.99882
1832.63098 0.99881
1831.20258 0.99880
1829.77419 0.99879
1828.34579 0.99877
1826.91740 0.99875
1825.48900 0.99873
1824.06061 0.99871
1822.63221 0.99870
1821.20382 0.99870
1819.77542 0.99869
1818.34703 0.99870
1816.91863 0.99870
1815.49024 0.99871
1814.06184 0.99871
1812.63345 0.99871
1811.20505 0.99870
1809.77666 0.99870
1808.34826 0.99869
1806.91987 0.99869
1805.49147 0.99869
1804.06308 0.99869
1802.63468 0.99869
1801.20629 0.99870
1799.77789 0.99870
1798.34950 0.99871
1796.92110 0.99873
1795.49271 0.99874
1794.06431 0.99875
1792.63592 0.99875
1791.20752 0.99875
1789.77913 0.99874
1788.35073 0.99874
1786.92234 0.99873
1785.49394 0.99872
1784.06554 0.99871
1782.63715 0.99870
1781.20875 0.99869
1779.78036 0.99868
1778.35196 0.99868
1776.92357 0.99868
1775.49517 0.99869
1774.06678 0.99869
1772.63838 0.99870
1771.20999 0.99871
1769.78159 0.99872
1768.35320 0.99873
1766.92480 0.99874
1765.49641 0.99875
1764.06801 0.99876
1762.63962 0.99876
1761.21122 0.99875
1759.78283 0.99874
1758.35443 0.99873
1756.92604 0.99872
1755.49764 0.99870
1754.06925 0.99868
1752.64085 0.99866
1751.21246 0.99864
1749.78406 0.99862
1748.35567 0.99860
1746.92727 0.99858
1745.49888 0.99856
1744.07048 0.99855
1742.64209 0.99853
1741.21369 0.99852
1739.78530 0.99850
1738.35690 0.99849
1736.92850 0.99849
1735.50011 0.99848
1734.07171 0.99849
1732.64332 0.99849
1731.21492 0.99850
1729.78653 0.99851
1728.35813 0.99852
1726.92974 0.99853
1725.50134 0.99854
1724.07295 0.99855
1722.64455 0.99856
1721.21616 0.99856
1719.78776 0.99856
1718.35937 0.99856
1716.93097 0.99856
1715.50258 0.99855
1714.07418 0.99856
1712.64579 0.99856
1711.21739 0.99856
1709.78900 0.99857
1708.36060 0.99859
1706.93221 0.99860
1705.50381 0.99862
1704.07542 0.99863
1702.64702 0.99865
1701.21863 0.99865
1699.79023 0.99865
1698.36184 0.99864
1696.93344 0.99862
1695.50505 0.99860
1694.07665 0.99856
1692.64826 0.99852
1691.21986 0.99847
1689.79146 0.99841
1688.36307 0.99835
1686.93467 0.99828
1685.50628 0.99821
1684.07788 0.99814
1682.64949 0.99807
1681.22109 0.99800
1679.79270 0.99792
1678.36430 0.99784
1676.93591 0.99776
1675.50751 0.99768
1674.07912 0.99760
1672.65072 0.99751
1671.22233 0.99743
1669.79393 0.99734
1668.36554 0.99724
1666.93714 0.99715
1665.50875 0.99705
1664.08035 0.99694
1662.65196 0.99683
1661.22356 0.99672
1659.79517 0.99662
1658.36677 0.99654
1656.93838 0.99647
1655.50998 0.99643
1654.08159 0.99641
1652.65319 0.99644
1651.22480 0.99650
1649.79640 0.99659
1648.36801 0.99673
1646.93961 0.99689
1645.51122 0.99707
1644.08282 0.99727
1642.65442 0.99747
1641.22603 0.99768
1639.79763 0.99788
1638.36924 0.99807
1636.94084 0.99826
1635.51245 0.99844
1634.08405 0.99861
1632.65566 0.99878
1631.22726 0.99893
1629.79887 0.99908
1628.37047 0.99922
1626.94208 0.99935
1625.51368 0.99948
1624.08529 0.99959
1622.65689 0.99969
1621.22850 0.99977
1619.80010 0.99984
1618.37171 0.99989
1616.94331 0.99993
1615.51492 0.99996
1614.08652 0.99998
1612.65813 0.99999
1611.22973 1.00000
1609.80134 1.00000
1608.37294 1.00000
1606.94455 1.00000
1605.51615 1.00000
1604.08776 1.00000
1602.65936 1.00000
1601.23097 1.00000
1599.80257 0.99998
1598.37418 0.99997
1596.94578 0.99994
1595.51738 0.99991
1594.08899 0.99988
1592.66059 0.99984
1591.23220 0.99980
1589.80380 0.99975
1588.37541 0.99971
1586.94701 0.99967
1585.51862 0.99963
1584.09022 0.99959
1582.66183 0.99955
1581.23343 0.99951
1579.80504 0.99946
1578.37664 0.99941
1576.94825 0.99936
1575.51985 0.99930
1574.09146 0.99923
1572.66306 0.99916
1571.23467 0.99909
1569.80627 0.99900
1568.37788 0.99891
1566.94948 0.99882
1565.52109 0.99872
1564.09269 0.99862
1562.66430 0.99852
1561.23590 0.99842
1559.80751 0.99832
1558.37911 0.99822
1556.95072 0.99813
1555.52232 0.99804
1554.09393 0.99795
1552.66553 0.99788
1551.23714 0.99780
1549.80874 0.99774
1548.38034 0.99769
1546.95195 0.99765
1545.52355 0.99763
1544.09516 0.99762
1542.66676 0.99764
1541.23837 0.99768
1539.80997 0.99774
1538.38158 0.99780
1536.95318 0.99788
1535.52479 0.99796
1534.09639 0.99804
1532.66800 0.99811
1531.23960 0.99818
1529.81121 0.99824
1528.38281 0.99829
1526.95442 0.99833
1525.52602 0.99837
1524.09763 0.99840
1522.66923 0.99843
1521.24084 0.99845
1519.81244 0.99848
1518.38405 0.99850
1516.95565 0.99851
1515.52726 0.99853
1514.09886 0.99855
1512.67047 0.99856
1511.24207 0.99858
1509.81368 0.99859
1508.38528 0.99861
1506.95689 0.99863
1505.52849 0.99865
1504.10010 0.99867
1502.67170 0.99869
1501.24330 0.99870
1499.81491 0.99871
1498.38651 0.99871
1496.95812 0.99870
1495.52972 0.99868
1494.10133 0.99865
1492.67293 0.99862
1491.24454 0.99857
1489.81614 0.99851
1488.38775 0.99843
1486.95935 0.99834
1485.53096 0.99822
1484.10256 0.99808
1482.67417 0.99791
1481.24577 0.99771
1479.81738 0.99747
1478.38898 0.99720
1476.96059 0.99690
1475.53219 0.99657
1474.10380 0.99622
1472.67540 0.99587
1471.24701 0.99552
1469.81861 0.99519
1468.39022 0.99488
1466.96182 0.99460
1465.53343 0.99436
1464.10503 0.99416
1462.67664 0.99401
1461.24824 0.99389
1459.81985 0.99379
1458.39145 0.99371
1456.96306 0.99364
1455.53466 0.99357
1454.10626 0.99348
1452.67787 0.99338
1451.24947 0.99325
1449.82108 0.99310
1448.39268 0.99291
1446.96429 0.99271
1445.53589 0.99248
1444.10750 0.99223
1442.67910 0.99197
1441.25071 0.99171
1439.82231 0.99143
1438.39392 0.99116
1436.96552 0.99088
1435.53713 0.99061
1434.10873 0.99035
1432.68034 0.99010
1431.25194 0.98986
1429.82355 0.98964
1428.39515 0.98943
1426.96676 0.98925
1425.53836 0.98909
1424.10997 0.98896
1422.68157 0.98886
1421.25318 0.98878
1419.82478 0.98873
1418.39639 0.98871
1416.96799 0.98871
1415.53960 0.98873
1414.11120 0.98878
1412.68281 0.98884
1411.25441 0.98892
1409.82602 0.98902
1408.39762 0.98913
1406.96922 0.98927
1405.54083 0.98942
1404.11243 0.98960
1402.68404 0.98978
1401.25564 0.98998
1399.82725 0.99020
1398.39885 0.99043
1396.97046 0.99066
1395.54206 0.99091
1394.11367 0.99116
1392.68527 0.99141
1391.25688 0.99165
1389.82848 0.99189
1388.40009 0.99212
1386.97169 0.99234
1385.54330 0.99255
1384.11490 0.99275
1382.68651 0.99293
1381.25811 0.99310
1379.82972 0.99325
1378.40132 0.99338
1376.97293 0.99350
1375.54453 0.99360
1374.11614 0.99369
1372.68774 0.99377
1371.25935 0.99384
1369.83095 0.99389
1368.40256 0.99393
1366.97416 0.99395
1365.54577 0.99397
1364.11737 0.99398
1362.68898 0.99397
1361.26058 0.99396
1359.83218 0.99394
1358.40379 0.99392
1356.97539 0.99389
1355.54700 0.99387
1354.11860 0.99384
1352.69021 0.99382
1351.26181 0.99380
1349.83342 0.99378
1348.40502 0.99376
1346.97663 0.99373
1345.54823 0.99369
1344.11984 0.99365
1342.69144 0.99361
1341.26305 0.99356
1339.83465 0.99351
1338.40626 0.99345
1336.97786 0.99339
1335.54947 0.99334
1334.12107 0.99329
1332.69268 0.99324
1331.26428 0.99319
1329.83589 0.99315
1328.40749 0.99312
1326.97910 0.99309
1325.55070 0.99306
1324.12231 0.99304
1322.69391 0.99303
1321.26552 0.99302
1319.83712 0.99301
1318.40873 0.99301
1316.98033 0.99301
1315.55194 0.99302
1314.12354 0.99303
1312.69514 0.99304
1311.26675 0.99305
1309.83835 0.99306
1308.40996 0.99307
1306.98156 0.99308
1305.55317 0.99309
1304.12477 0.99311
1302.69638 0.99313
1301.26798 0.99315
1299.83959 0.99318
1298.41119 0.99321
1296.98280 0.99325
1295.55440 0.99330
1294.12601 0.99335
1292.69761 0.99341
1291.26922 0.99347
1289.84082 0.99353
1288.41243 0.99360
1286.98403 0.99367
1285.55564 0.99374
1284.12724 0.99381
1282.69885 0.99388
1281.27045 0.99395
1279.84206 0.99402
1278.41366 0.99408
1276.98527 0.99413
1275.55687 0.99417
1274.12848 0.99421
1272.70008 0.99423
1271.27169 0.99425
1269.84329 0.99427
1268.41490 0.99428
1266.98650 0.99430
1265.55810 0.99431
1264.12971 0.99433
1262.70131 0.99435
1261.27292 0.99436
1259.84452 0.99438
1258.41613 0.99440
1256.98773 0.99442
1255.55934 0.99443
1254.13094 0.99444
1252.70255 0.99444
1251.27415 0.99443
1249.84576 0.99443
1248.41736 0.99442
1246.98897 0.99440
1245.56057 0.99439
1244.13218 0.99438
1242.70378 0.99437
1241.27539 0.99436
1239.84699 0.99436
1238.41860 0.99435
1236.99020 0.99434
1235.56181 0.99433
1234.13341 0.99432
1232.70502 0.99430
1231.27662 0.99427
1229.84823 0.99424
1228.41983 0.99421
1226.99144 0.99417
1225.56304 0.99413
1224.13465 0.99408
1222.70625 0.99405
1221.27786 0.99402
1219.84946 0.99400
1218.42106 0.99399
1216.99267 0.99401
1215.56427 0.99404
1214.13588 0.99409
1212.70748 0.99417
1211.27909 0.99427
1209.85069 0.99440
1208.42230 0.99456
1206.99390 0.99475
1205.56551 0.99497
1204.13711 0.99520
1202.70872 0.99546
1201.28032 0.99574
1199.85193 0.99603
1198.42353 0.99633
1196.99514 0.99663
1195.56674 0.99694
1194.13835 0.99724
1192.70995 0.99752
1191.28156 0.99779
1189.85316 0.99804
1188.42477 0.99827
1186.99637 0.99849
1185.56798 0.99868
1184.13958 0.99886
1182.71119 0.99902
1181.28279 0.99916
1179.85440 0.99929
1178.42600 0.99940
1176.99761 0.99950
1175.56921 0.99959
1174.14082 0.99967
1172.71242 0.99973
1171.28402 0.99979
1169.85563 0.99984
1168.42723 0.99989
1166.99884 0.99993
1165.57044 0.99996
1164.14205 0.99998
1162.71365 1.00000
1161.28526 1.00000
1159.85686 0.99998
1158.42847 0.99993
1157.00007 0.99983
1155.57168 0.99969
1154.14328 0.99948
1152.71489 0.99922
1151.28649 0.99889
1149.85810 0.99850
1148.42970 0.99806
1147.00131 0.99758
1145.57291 0.99706
1144.14452 0.99653
1142.71612 0.99600
1141.28773 0.99549
1139.85933 0.99501
1138.43094 0.99459
1137.00254 0.99421
1135.57415 0.99390
1134.14575 0.99365
1132.71736 0.99346
1131.28896 0.99331
1129.86057 0.99319
1128.43217 0.99310
1127.00378 0.99300
1125.57538 0.99288
1124.14698 0.99273
1122.71859 0.99252
1121.29019 0.99224
1119.86180 0.99190
1118.43340 0.99147
1117.00501 0.99097
1115.57661 0.99040
1114.14822 0.98976
1112.71982 0.98908
1111.29143 0.98835
1109.86303 0.98759
1108.43464 0.98681
1107.00624 0.98601
1105.57785 0.98521
1104.14945 0.98440
1102.72106 0.98357
1101.29266 0.98273
1099.86427 0.98186
1098.43587 0.98096
1097.00748 0.98004
1095.57908 0.97910
1094.15069 0.97816
1092.72229 0.97725
1091.29390 0.97639
1089.86550 0.97562
1088.43711 0.97498
1087.00871 0.97450
1085.58032 0.97421
1084.15192 0.97413
1082.72353 0.97428
1081.29513 0.97464
1079.86673 0.97520
1078.43834 0.97593
1077.00994 0.97679
1075.58155 0.97773
1074.15315 0.97870
1072.72476 0.97965
1071.29636 0.98055
1069.86797 0.98135
1068.43957 0.98202
1067.01118 0.98255
1065.58278 0.98293
1064.15439 0.98315
1062.72599 0.98322
1061.29760 0.98316
1059.86920 0.98298
1058.44081 0.98270
1057.01241 0.98236
1055.58402 0.98198
1054.15562 0.98159
1052.72723 0.98121
1051.29883 0.98087
1049.87044 0.98059
1048.44204 0.98038
1047.01365 0.98023
1045.58525 0.98016
1044.15686 0.98016
1042.72846 0.98021
1041.30007 0.98030
1039.87167 0.98042
1038.44328 0.98056
1037.01488 0.98070
1035.58649 0.98084
1034.15809 0.98099
1032.72969 0.98115
1031.30130 0.98134
1029.87290 0.98157
1028.44451 0.98183
1027.01611 0.98215
1025.58772 0.98251
1024.15932 0.98292
1022.73093 0.98337
1021.30253 0.98384
1019.87414 0.98433
1018.44574 0.98480
1017.01735 0.98525
1015.58895 0.98566
1014.16056 0.98604
1012.73216 0.98638
1011.30377 0.98668
1009.87537 0.98698
1008.44698 0.98728
1007.01858 0.98760
1005.59019 0.98796
1004.16179 0.98838
1002.73340 0.98887
1001.30500 0.98942
999.87661 0.99004
998.44821 0.99071
997.01982 0.99142
995.59142 0.99215
994.16303 0.99288
992.73463 0.99359
991.30624 0.99427
989.87784 0.99489
988.44945 0.99545
987.02105 0.99595
985.59265 0.99639
984.16426 0.99677
982.73586 0.99709
981.30747 0.99736
979.87907 0.99759
978.45068 0.99779
977.02228 0.99795
975.59389 0.99809
974.16549 0.99820
972.73710 0.99830
971.30870 0.99838
969.88031 0.99844
968.45191 0.99848
967.02352 0.99851
965.59512 0.99852
964.16673 0.99851
962.73833 0.99850
961.30994 0.99847
959.88154 0.99843
958.45315 0.99840
957.02475 0.99837
955.59636 0.99835
954.16796 0.99834
952.73957 0.99835
951.31117 0.99837
949.88278 0.99841
948.45438 0.99845
947.02599 0.99850
945.59759 0.99855
944.16920 0.99860
942.74080 0.99864
941.31241 0.99867
939.88401 0.99870
938.45561 0.99871
937.02722 0.99872
935.59882 0.99873
934.17043 0.99874
932.74203 0.99876
931.31364 0.99879
929.88524 0.99884
928.45685 0.99889
927.02845 0.99896
925.60006 0.99903
924.17166 0.99912
922.74327 0.99921
921.31487 0.99931
919.88648 0.99941
918.45808 0.99952
917.02969 0.99963
915.60129 0.99973
914.17290 0.99983
912.74450 0.99991
911.31611 0.99997
909.88771 1.00000
908.45932 0.99999
907.03092 0.99993
905.60253 0.99980
904.17413 0.99962
902.74574 0.99937
901.31734 0.99907
899.88895 0.99872
898.46055 0.99834
897.03216 0.99796
895.60376 0.99759
894.17537 0.99725
892.74697 0.99695
891.31857 0.99672
889.89018 0.99655
888.46178 0.99644
887.03339 0.99640
885.60499 0.99641
884.17660 0.99647
882.74820 0.99655
881.31981 0.99666
879.89141 0.99678
878.46302 0.99690
877.03462 0.99702
875.60623 0.99714
874.17783 0.99726
872.74944 0.99740
871.32104 0.99753
869.89265 0.99768
868.46425 0.99782
867.03586 0.99797
865.60746 0.99812
864.17907 0.99826
862.75067 0.99840
861.32228 0.99852
859.89388 0.99863
858.46549 0.99871
857.03709 0.99878
855.60870 0.99882
854.18030 0.99887
852.75191 0.99891
851.32351 0.99896
849.89512 0.99902
848.46672 0.99909
847.03833 0.99917
845.60993 0.99925
844.18153 0.99935
842.75314 0.99945
841.32474 0.99956
839.89635 0.99965
838.46795 0.99974
837.03956 0.99980
835.61116 0.99984
834.18277 0.99987
832.75437 0.99987
831.32598 0.99987
829.89758 0.99986
828.46919 0.99985
827.04079 0.99983
825.61240 0.99982
824.18400 0.99981
822.75561 0.99981
821.32721 0.99982
819.89882 0.99984
818.47042 0.99987
817.04203 0.99990
815.61363 0.99993
814.18524 0.99996
812.75684 0.99998
811.32845 0.99999
809.90005 1.00000
808.47166 1.00000
807.04326 0.99999
805.61487 0.99998
804.18647 0.99996
802.75808 0.99993
801.32968 0.99990
799.90129 0.99988
798.47289 0.99987
797.04449 0.99986
795.61610 0.99986
794.18770 0.99985
792.75931 0.99985
791.33091 0.99984
789.90252 0.99982
788.47412 0.99979
787.04573 0.99975
785.61733 0.99969
784.18894 0.99962
782.76054 0.99954
781.33215 0.99945
779.90375 0.99937
778.47536 0.99929
777.04696 0.99921
775.61857 0.99914
774.19017 0.99908
772.76178 0.99904
771.33338 0.99901
769.90499 0.99899
768.47659 0.99898
767.04820 0.99897
765.61980 0.99896
764.19141 0.99895
762.76301 0.99893
761.33462 0.99890
759.90622 0.99886
758.47783 0.99881
757.04943 0.99874
755.62104 0.99866
754.19264 0.99856
752.76425 0.99846
751.33585 0.99835
749.90745 0.99826
748.47906 0.99817
747.05066 0.99810
745.62227 0.99804
744.19387 0.99800
742.76548 0.99799
741.33708 0.99799
739.90869 0.99801
738.48029 0.99806
737.05190 0.99812
735.62350 0.99819
734.19511 0.99828
732.76671 0.99836
731.33832 0.99845
729.90992 0.99853
728.48153 0.99861
727.05313 0.99869
725.62474 0.99877
724.19634 0.99884
722.76795 0.99892
721.33955 0.99899
719.91116 0.99907
718.48276 0.99914
717.05437 0.99922
715.62597 0.99930
714.19758 0.99937
712.76918 0.99944
711.34079 0.99948
709.91239 0.99950
708.48400 0.99949
707.05560 0.99945
705.62721 0.99938
704.19881 0.99928
702.77041 0.99916
701.34202 0.99904
699.91362 0.99890
698.48523 0.99877
697.05683 0.99865
695.62844 0.99854
694.20004 0.99845
692.77165 0.99838
691.34325 0.99834
689.91486 0.99832
688.48646 0.99833
687.05807 0.99834
685.62967 0.99835
684.20128 0.99832
682.77288 0.99826
681.34449 0.99817
679.91609 0.99804
678.48770 0.99789
677.05930 0.99771
675.63091 0.99752
674.20251 0.99733
672.77412 0.99714
671.34572 0.99698
669.91733 0.99687
668.48893 0.99683
667.06054 0.99687
665.63214 0.99697
664.20375 0.99710
662.77535 0.99724
661.34696 0.99740
659.91856 0.99755
658.49017 0.99771
657.06177 0.99784
655.63337 0.99796
654.20498 0.99806
652.77658 0.99814
651.34819 0.99819
649.91979 0.99823
648.49140 0.99827
647.06300 0.99832
645.63461 0.99840
644.20621 0.99851
642.77782 0.99862
641.34942 0.99874
639.92103 0.99887
638.49263 0.99901
637.06424 0.99914
635.63584 0.99926
634.20745 0.99935
632.77905 0.99942
631.35066 0.99945
629.92226 0.99945
628.49387 0.99942
627.06547 0.99937
625.63708 0.99931
624.20868 0.99925
622.78029 0.99921
621.35189 0.99919
619.92350 0.99919
618.49510 0.99923
617.06671 0.99930
615.63831 0.99940
614.20992 0.99952
612.78152 0.99963
611.35313 0.99974
609.92473 0.99983
608.49633 0.99991
607.06794 0.99996
605.63954 0.99999
604.21115 1.00000
602.78275 0.99999
601.35436 0.99997
599.92596 0.99992
598.49757 0.99986
597.06917 0.99980
595.64078 0.99973
594.21238 0.99966
592.78399 0.99959
591.35559 0.99951
589.92720 0.99944
588.49880 0.99936
587.07041 0.99929
585.64201 0.99924
584.21362 0.99920
582.78522 0.99918
581.35683 0.99917
579.92843 0.99918
578.50004 0.99919
577.07164 0.99921
575.64325 0.99922
574.21485 0.99923
572.78646 0.99922
571.35806 0.99919
569.92967 0.99916
568.50127 0.99914
567.07288 0.99911
565.64448 0.99910
564.21609 0.99910
562.78769 0.99911
561.35929 0.99914
559.93090 0.99919
558.50250 0.99925
557.07411 0.99931
555.64571 0.99937
554.21732 0.99942
552.78892 0.99946
551.36053 0.99948
549.93213 0.99948
548.50374 0.99947
547.07534 0.99946
545.64695 0.99946
544.21855 0.99946
542.79016 0.99947
541.36176 0.99950
539.93337 0.99953
538.50497 0.99957
537.07658 0.99961
535.64818 0.99964
534.21979 0.99967
532.79139 0.99969
531.36300 0.99970
529.93460 0.99968
528.50621 0.99965
527.07781 0.99958
525.64942 0.99948
524.22102 0.99936
522.79263 0.99925
521.36423 0.99917
519.93584 0.99913
518.50744 0.99911
517.07905 0.99911
515.65065 0.99915
514.22225 0.99921
512.79386 0.99929
511.36546 0.99937
509.93707 0.99944
508.50867 0.99948
507.08028 0.99949
505.65188 0.99944
504.22349 0.99934
502.79509 0.99919
501.36670 0.99902
499.93830 0.99887
498.50991 0.99874
497.08151 0.99862
495.65312 0.99850
494.22472 0.99839
492.79633 0.99830
491.36793 0.99821
489.93954 0.99811
488.51114 0.99799
487.08275 0.99785
485.65435 0.99771
484.22596 0.99757
482.79756 0.99744
481.36917 0.99730
479.94077 0.99716
478.51238 0.99704
477.08398 0.99695
475.65559 0.99689
474.22719 0.99687
472.79880 0.99688
471.37040 0.99692
469.94201 0.99697
468.51361 0.99703
467.08521 0.99709
465.65682 0.99720
464.22842 0.99736
462.80003 0.99758
461.37163 0.99785
459.94324 0.99815
458.51484 0.99847
457.08645 0.99879
455.65805 0.99912
454.22966 0.99943
452.80126 0.99971
451.37287 0.99991
449.94447 1.00000
448.51608 0.99996
447.08768 0.99976
445.65929 0.99944
444.23089 0.99905
442.80250 0.99867
441.37410 0.99832
439.94571 0.99807
438.51731 0.99794
437.08892 0.99795
435.66052 0.99811
434.23213 0.99841
432.80373 0.99881
431.37534 0.99924
429.94694 0.99962
428.51855 0.99989
427.09015 1.00000
425.66176 0.99999
424.23336 0.99982
422.80497 0.99957
421.37657 0.99931
419.94817 0.99907
418.51978 0.99888
417.09138 0.99878
415.66299 0.99879
414.23459 0.99891
412.80620 0.99914
411.37780 0.99946
409.94941 0.99953
408.52101 0.99960
407.09262 0.99966
405.66422 0.99973
404.23583 0.99980
402.80743 0.99987
401.37904 0.99993
399.95064 1.00000
