3998.07803 0.99986
3996.64964 0.99986
3995.22124 0.99987
3993.79285 0.99988
3992.36445 0.99988
3990.93605 0.99989
3989.50766 0.99989
3988.07926 0.99990
3986.65087 0.99991
3985.22247 0.99995
3983.79408 0.99999
3982.36568 1.00000
3980.93729 0.99999
3979.50889 0.99996
3978.08050 0.99993
3976.65210 0.99990
3975.22371 0.99989
3973.79531 0.99990
3972.36692 0.99991
3970.93852 0.99992
3969.51013 0.99992
3968.08173 0.99993
3966.65334 0.99994
3965.22494 0.99995
3963.79655 0.99997
3962.36815 0.99999
3960.93976 1.00000
3959.51136 0.99998
3958.08297 0.99994
3956.65457 0.99990
3955.22618 0.99985
3953.79778 0.99981
3952.36939 0.99976
3950.94099 0.99971
3949.51260 0.99967
3948.08420 0.99965
3946.65581 0.99967
3945.22741 0.99971
3943.79901 0.99977
3942.37062 0.99981
3940.94222 0.99984
3939.51383 0.99985
3938.08543 0.99985
3936.65704 0.99983
3935.22864 0.99980
3933.80025 0.99976
3932.37185 0.99971
3930.94346 0.99966
3929.51506 0.99962
3928.08667 0.99958
3926.65827 0.99956
3925.22988 0.99956
3923.80148 0.99957
3922.37309 0.99958
3920.94469 0.99958
3919.51630 0.99958
3918.08790 0.99960
3916.65951 0.99965
3915.23111 0.99970
3913.80272 0.99973
3912.37432 0.99972
3910.94593 0.99969
3909.51753 0.99965
3908.08914 0.99961
3906.66074 0.99957
3905.23235 0.99954
3903.80395 0.99950
3902.37556 0.99946
3900.94716 0.99941
3899.51877 0.99937
3898.09037 0.99937
3896.66197 0.99940
3895.23358 0.99945
3893.80518 0.99951
3892.37679 0.99953
3890.94839 0.99952
3889.52000 0.99949
3888.09160 0.99946
3886.66321 0.99944
3885.23481 0.99945
3883.80642 0.99947
3882.37802 0.99949
3880.94963 0.99949
3879.52123 0.99946
3878.09284 0.99942
3876.66444 0.99938
3875.23605 0.99934
3873.80765 0.99927
3872.37926 0.99918
3870.95086 0.99908
3869.52247 0.99901
3868.09407 0.99896
3866.66568 0.99896
3865.23728 0.99899
3863.80889 0.99902
3862.38049 0.99902
3860.95210 0.99899
3859.52370 0.99895
3858.09531 0.99891
3856.66691 0.99890
3855.23852 0.99891
3853.81012 0.99893
3852.38173 0.99894
3850.95333 0.99895
3849.52493 0.99895
3848.09654 0.99894
3846.66814 0.99892
3845.23975 0.99888
3843.81135 0.99885
3842.38296 0.99879
3840.95456 0.99870
3839.52617 0.99861
3838.09777 0.99855
3836.66938 0.99854
3835.24098 0.99857
3833.81259 0.99864
3832.38419 0.99874
3830.95580 0.99882
3829.52740 0.99888
3828.09901 0.99891
3826.67061 0.99889
3825.24222 0.99883
3823.81382 0.99876
3822.38543 0.99872
3820.95703 0.99872
3819.52864 0.99876
3818.10024 0.99884
3816.67185 0.99893
3815.24345 0.99903
3813.81506 0.99913
3812.38666 0.99920
3810.95827 0.99923
3809.52987 0.99921
3808.10148 0.99913
3806.67308 0.99903
3805.24469 0.99891
3803.81629 0.99881
3802.38789 0.99875
3800.95950 0.99874
3799.53110 0.99880
3798.10271 0.99890
3796.67431 0.99903
3795.24592 0.99915
3793.81752 0.99926
3792.38913 0.99937
3790.96073 0.99946
3789.53234 0.99949
3788.10394 0.99947
3786.67555 0.99942
3785.24715 0.99936
3783.81876 0.99930
3782.39036 0.99926
3780.96197 0.99923
3779.53357 0.99921
3778.10518 0.99919
3776.67678 0.99916
3775.24839 0.99912
3773.81999 0.99908
3772.39160 0.99905
3770.96320 0.99905
3769.53481 0.99905
3768.10641 0.99903
3766.67802 0.99899
3765.24962 0.99892
3763.82123 0.99887
3762.39283 0.99882
3760.96444 0.99876
3759.53604 0.99869
3758.10765 0.99858
3756.67925 0.99847
3755.25085 0.99833
3753.82246 0.99819
3752.39406 0.99806
3750.96567 0.99797
3749.53727 0.99794
3748.10888 0.99794
3746.68048 0.99796
3745.25209 0.99794
3743.82369 0.99788
3742.39530 0.99783
3740.96690 0.99781
3739.53851 0.99781
3738.11011 0.99785
3736.68172 0.99791
3735.25332 0.99800
3733.82493 0.99809
3732.39653 0.99816
3730.96814 0.99820
3729.53974 0.99824
3728.11135 0.99831
3726.68295 0.99841
3725.25456 0.99851
3723.82616 0.99859
3722.39777 0.99863
3720.96937 0.99861
3719.54098 0.99857
3718.11258 0.99853
3716.68419 0.99854
3715.25579 0.99858
3713.82740 0.99863
3712.39900 0.99867
3710.97061 0.99867
3709.54221 0.99865
3708.11381 0.99863
3706.68542 0.99863
3705.25702 0.99866
3703.82863 0.99873
3702.40023 0.99884
3700.97184 0.99895
3699.54344 0.99899
3698.11505 0.99896
3696.68665 0.99890
3695.25826 0.99885
3693.82986 0.99884
3692.40147 0.99886
3690.97307 0.99890
3689.54468 0.99894
3688.11628 0.99898
3686.68789 0.99900
3685.25949 0.99899
3683.83110 0.99896
3682.40270 0.99890
3680.97431 0.99883
3679.54591 0.99871
3678.11752 0.99857
3676.68912 0.99841
3675.26073 0.99830
3673.83233 0.99827
3672.40394 0.99831
3670.97554 0.99844
3669.54715 0.99864
3668.11875 0.99890
3666.69036 0.99917
3665.26196 0.99944
3663.83357 0.99966
3662.40517 0.99983
3660.97677 0.99997
3659.54838 1.00005
3658.11998 1.00003
3656.69159 0.99993
3655.26319 0.99980
3653.83480 0.99968
3652.40640 0.99960
3650.97801 0.99955
3649.54961 0.99954
3648.12122 0.99957
3646.69282 0.99962
3645.26443 0.99970
3643.83603 0.99978
3642.40764 0.99986
3640.97924 0.99994
3639.55085 1.00000
3638.12245 1.00000
3636.69406 0.99995
3635.26566 0.99986
3633.83727 0.99976
3632.40887 0.99970
3630.98048 0.99967
3629.55208 0.99967
3628.12369 0.99968
3626.69529 0.99967
3625.26690 0.99967
3623.83850 0.99966
3622.41011 0.99965
3620.98171 0.99963
3619.55332 0.99959
3618.12492 0.99951
3616.69653 0.99940
3615.26813 0.99930
3613.83973 0.99924
3612.41134 0.99925
3610.98294 0.99931
3609.55455 0.99940
3608.12615 0.99950
3606.69776 0.99958
3605.26936 0.99963
3603.84097 0.99966
3602.41257 0.99968
3600.98418 0.99970
3599.55578 0.99970
3598.12739 0.99969
3596.69899 0.99964
3595.27060 0.99958
3593.84220 0.99953
3592.41381 0.99951
3590.98541 0.99952
3589.55702 0.99954
3588.12862 0.99956
3586.70023 0.99958
3585.27183 0.99959
3583.84344 0.99959
3582.41504 0.99957
3580.98665 0.99955
3579.55825 0.99954
3578.12986 0.99954
3576.70146 0.99950
3575.27307 0.99941
3573.84467 0.99930
3572.41628 0.99919
3570.98788 0.99910
3569.55949 0.99902
3568.13109 0.99896
3566.70269 0.99892
3565.27430 0.99891
3563.84590 0.99891
3562.41751 0.99893
3560.98911 0.99895
3559.56072 0.99900
3558.13232 0.99907
3556.70393 0.99914
3555.27553 0.99918
3553.84714 0.99920
3552.41874 0.99919
3550.99035 0.99919
3549.56195 0.99919
3548.13356 0.99919
3546.70516 0.99920
3545.27677 0.99921
3543.84837 0.99921
3542.41998 0.99920
3540.99158 0.99919
3539.56319 0.99917
3538.13479 0.99914
3536.70640 0.99909
3535.27800 0.99902
3533.84961 0.99892
3532.42121 0.99881
3530.99282 0.99872
3529.56442 0.99866
3528.13603 0.99862
3526.70763 0.99862
3525.27924 0.99865
3523.85084 0.99869
3522.42245 0.99875
3520.99405 0.99882
3519.56565 0.99888
3518.13726 0.99892
3516.70886 0.99893
3515.28047 0.99890
3513.85207 0.99884
3512.42368 0.99876
3510.99528 0.99868
3509.56689 0.99861
3508.13849 0.99856
3506.71010 0.99852
3505.28170 0.99850
3503.85331 0.99851
3502.42491 0.99856
3500.99652 0.99864
3499.56812 0.99872
3498.13973 0.99880
3496.71133 0.99886
3495.28294 0.99891
3493.85454 0.99893
3492.42615 0.99894
3490.99775 0.99892
3489.56936 0.99888
3488.14096 0.99885
3486.71257 0.99883
3485.28417 0.99881
3483.85578 0.99879
3482.42738 0.99878
3480.99899 0.99880
3479.57059 0.99884
3478.14220 0.99888
3476.71380 0.99891
3475.28541 0.99891
3473.85701 0.99889
3472.42861 0.99889
3471.00022 0.99889
3469.57182 0.99888
3468.14343 0.99885
3466.71503 0.99882
3465.28664 0.99880
3463.85824 0.99879
3462.42985 0.99880
3461.00145 0.99884
3459.57306 0.99890
3458.14466 0.99896
3456.71627 0.99901
3455.28787 0.99905
3453.85948 0.99909
3452.43108 0.99913
3451.00269 0.99920
3449.57429 0.99927
3448.14590 0.99934
3446.71750 0.99940
3445.28911 0.99943
3443.86071 0.99945
3442.43232 0.99947
3441.00392 0.99951
3439.57553 0.99956
3438.14713 0.99962
3436.71874 0.99966
3435.29034 0.99966
3433.86195 0.99963
3432.43355 0.99960
3431.00516 0.99959
3429.57676 0.99960
3428.14837 0.99963
3426.71997 0.99966
3425.29157 0.99970
3423.86318 0.99975
3422.43478 0.99979
3421.00639 0.99983
3419.57799 0.99987
3418.14960 0.99992
3416.72120 0.99997
3415.29281 1.00000
3413.86441 1.00000
3412.43602 0.99997
3411.00762 0.99993
3409.57923 0.99987
3408.15083 0.99982
3406.72244 0.99977
3405.29404 0.99973
3403.86565 0.99970
3402.43725 0.99968
3401.00886 0.99967
3399.58046 0.99966
3398.15207 0.99964
3396.72367 0.99963
3395.29528 0.99964
3393.86688 0.99967
3392.43849 0.99972
3391.01009 0.99978
3389.58170 0.99983
3388.15330 0.99987
3386.72491 0.99989
3385.29651 0.99992
3383.86812 0.99995
3382.43972 0.99998
3381.01133 1.00002
3379.58293 1.00006
3378.15453 1.00007
3376.72614 1.00006
3375.29774 1.00002
3373.86935 0.99996
3372.44095 0.99988
3371.01256 0.99982
3369.58416 0.99977
3368.15577 0.99973
3366.72737 0.99970
3365.29898 0.99968
3363.87058 0.99968
3362.44219 0.99969
3361.01379 0.99972
3359.58540 0.99975
3358.15700 0.99977
3356.72861 0.99977
3355.30021 0.99975
3353.87182 0.99971
3352.44342 0.99963
3351.01503 0.99954
3349.58663 0.99947
3348.15824 0.99944
3346.72984 0.99944
3345.30145 0.99948
3343.87305 0.99954
3342.44466 0.99962
3341.01626 0.99972
3339.58787 0.99984
3338.15947 0.99992
3336.73108 0.99998
3335.30268 1.00000
3333.87428 1.00000
3332.44589 0.99999
3331.01749 0.99995
3329.58910 0.99988
3328.16070 0.99980
3326.73231 0.99974
3325.30391 0.99969
3323.87552 0.99965
3322.44712 0.99961
3321.01873 0.99958
3319.59033 0.99956
3318.16194 0.99954
3316.73354 0.99951
3315.30515 0.99947
3313.87675 0.99942
3312.44836 0.99939
3311.01996 0.99936
3309.59157 0.99934
3308.16317 0.99931
3306.73478 0.99930
3305.30638 0.99930
3303.87799 0.99932
3302.44959 0.99932
3301.02120 0.99931
3299.59280 0.99927
3298.16441 0.99922
3296.73601 0.99916
3295.30762 0.99910
3293.87922 0.99904
3292.45083 0.99900
3291.02243 0.99896
3289.59404 0.99893
3288.16564 0.99890
3286.73724 0.99890
3285.30885 0.99893
3283.88045 0.99898
3282.45206 0.99904
3281.02366 0.99910
3279.59527 0.99915
3278.16687 0.99919
3276.73848 0.99922
3275.31008 0.99923
3273.88169 0.99922
3272.45329 0.99920
3271.02490 0.99920
3269.59650 0.99921
3268.16811 0.99922
3266.73971 0.99923
3265.31132 0.99924
3263.88292 0.99925
3262.45453 0.99926
3261.02613 0.99928
3259.59774 0.99931
3258.16934 0.99933
3256.74095 0.99935
3255.31255 0.99935
3253.88416 0.99936
3252.45576 0.99938
3251.02737 0.99940
3249.59897 0.99944
3248.17058 0.99949
3246.74218 0.99955
3245.31379 0.99959
3243.88539 0.99960
3242.45700 0.99959
3241.02860 0.99958
3239.60020 0.99960
3238.17181 0.99965
3236.74341 0.99970
3235.31502 0.99974
3233.88662 0.99977
3232.45823 0.99981
3231.02983 0.99985
3229.60144 0.99989
3228.17304 0.99992
3226.74465 0.99994
3225.31625 0.99995
3223.88786 0.99994
3222.45946 0.99993
3221.03107 0.99993
3219.60267 0.99994
3218.17428 0.99995
3216.74588 0.99998
3215.31749 1.00000
3213.88909 1.00001
3212.46070 1.00001
3211.03230 1.00000
3209.60391 0.99998
3208.17551 0.99997
3206.74712 0.99996
3205.31872 0.99996
3203.89033 0.99997
3202.46193 0.99998
3201.03354 1.00000
3199.60514 1.00000
3198.17675 1.00000
3196.74835 0.99999
3195.31996 0.99996
3193.89156 0.99993
3192.46316 0.99989
3191.03477 0.99985
3189.60637 0.99983
3188.17798 0.99982
3186.74958 0.99981
3185.32119 0.99979
3183.89279 0.99976
3182.46440 0.99972
3181.03600 0.99968
3179.60761 0.99964
3178.17921 0.99962
3176.75082 0.99960
3175.32242 0.99956
3173.89403 0.99952
3172.46563 0.99946
3171.03724 0.99939
3169.60884 0.99933
3168.18045 0.99928
3166.75205 0.99925
3165.32366 0.99923
3163.89526 0.99920
3162.46687 0.99915
3161.03847 0.99908
3159.61008 0.99901
3158.18168 0.99896
3156.75329 0.99894
3155.32489 0.99894
3153.89650 0.99895
3152.46810 0.99895
3151.03971 0.99892
3149.61131 0.99889
3148.18292 0.99887
3146.75452 0.99885
3145.32612 0.99883
3143.89773 0.99882
3142.46933 0.99879
3141.04094 0.99875
3139.61254 0.99870
3138.18415 0.99865
3136.75575 0.99861
3135.32736 0.99859
3133.89896 0.99858
3132.47057 0.99859
3131.04217 0.99861
3129.61378 0.99861
3128.18538 0.99862
3126.75699 0.99862
3125.32859 0.99863
3123.90020 0.99863
3122.47180 0.99862
3121.04341 0.99859
3119.61501 0.99855
3118.18662 0.99850
3116.75822 0.99846
3115.32983 0.99843
3113.90143 0.99840
3112.47304 0.99836
3111.04464 0.99831
3109.61625 0.99826
3108.18785 0.99822
3106.75946 0.99817
3105.33106 0.99814
3103.90267 0.99812
3102.47427 0.99812
3101.04588 0.99813
3099.61748 0.99814
3098.18908 0.99815
3096.76069 0.99817
3095.33229 0.99818
3093.90390 0.99819
3092.47550 0.99821
3091.04711 0.99823
3089.61871 0.99824
3088.19032 0.99824
3086.76192 0.99824
3085.33353 0.99825
3083.90513 0.99826
3082.47674 0.99829
3081.04834 0.99832
3079.61995 0.99837
3078.19155 0.99842
3076.76316 0.99847
3075.33476 0.99851
3073.90637 0.99853
3072.47797 0.99854
3071.04958 0.99855
3069.62118 0.99855
3068.19279 0.99856
3066.76439 0.99855
3065.33600 0.99854
3063.90760 0.99853
3062.47921 0.99853
3061.05081 0.99852
3059.62242 0.99852
3058.19402 0.99851
3056.76563 0.99851
3055.33723 0.99851
3053.90884 0.99850
3052.48044 0.99848
3051.05204 0.99848
3049.62365 0.99849
3048.19525 0.99851
3046.76686 0.99854
3045.33846 0.99857
3043.91007 0.99859
3042.48167 0.99863
3041.05328 0.99867
3039.62488 0.99871
3038.19649 0.99875
3036.76809 0.99880
3035.33970 0.99883
3033.91130 0.99886
3032.48291 0.99888
3031.05451 0.99890
3029.62612 0.99892
3028.19772 0.99895
3026.76933 0.99898
3025.34093 0.99900
3023.91254 0.99902
3022.48414 0.99903
3021.05575 0.99903
3019.62735 0.99903
3018.19896 0.99905
3016.77056 0.99907
3015.34217 0.99911
3013.91377 0.99914
3012.48538 0.99915
3011.05698 0.99914
3009.62859 0.99912
3008.20019 0.99910
3006.77180 0.99909
3005.34340 0.99908
3003.91500 0.99908
3002.48661 0.99906
3001.05821 0.99904
2999.62982 0.99901
2998.20142 0.99897
2996.77303 0.99892
2995.34463 0.99887
2993.91624 0.99883
2992.48784 0.99877
2991.05945 0.99869
2989.63105 0.99859
2988.20266 0.99847
2986.77426 0.99835
2985.34587 0.99823
2983.91747 0.99810
2982.48908 0.99797
2981.06068 0.99782
2979.63229 0.99767
2978.20389 0.99749
2976.77550 0.99730
2975.34710 0.99710
2973.91871 0.99688
2972.49031 0.99666
2971.06192 0.99644
2969.63352 0.99622
2968.20513 0.99601
2966.77673 0.99580
2965.34834 0.99560
2963.91994 0.99541
2962.49155 0.99524
2961.06315 0.99508
2959.63476 0.99493
2958.20636 0.99479
2956.77796 0.99466
2955.34957 0.99452
2953.92117 0.99439
2952.49278 0.99425
2951.06438 0.99412
2949.63599 0.99400
2948.20759 0.99388
2946.77920 0.99379
2945.35080 0.99372
2943.92241 0.99367
2942.49401 0.99363
2941.06562 0.99361
2939.63722 0.99362
2938.20883 0.99367
2936.78043 0.99374
2935.35204 0.99383
2933.92364 0.99392
2932.49525 0.99400
2931.06685 0.99408
2929.63846 0.99417
2928.21006 0.99427
2926.78167 0.99436
2925.35327 0.99443
2923.92488 0.99450
2922.49648 0.99456
2921.06809 0.99462
2919.63969 0.99468
2918.21130 0.99474
2916.78290 0.99482
2915.35451 0.99489
2913.92611 0.99497
2912.49772 0.99503
2911.06932 0.99509
2909.64092 0.99513
2908.21253 0.99518
2906.78413 0.99522
2905.35574 0.99526
2903.92734 0.99527
2902.49895 0.99527
2901.07055 0.99526
2899.64216 0.99525
2898.21376 0.99525
2896.78537 0.99524
2895.35697 0.99524
2893.92858 0.99525
2892.50018 0.99526
2891.07179 0.99528
2889.64339 0.99531
2888.21500 0.99535
2886.78660 0.99540
2885.35821 0.99546
2883.92981 0.99553
2882.50142 0.99562
2881.07302 0.99571
2879.64463 0.99580
2878.21623 0.99590
2876.78784 0.99599
2875.35944 0.99608
2873.93105 0.99617
2872.50265 0.99626
2871.07426 0.99635
2869.64586 0.99644
2868.21747 0.99652
2866.78907 0.99658
2865.36068 0.99664
2863.93228 0.99669
2862.50388 0.99673
2861.07549 0.99677
2859.64709 0.99680
2858.21870 0.99682
2856.79030 0.99683
2855.36191 0.99684
2853.93351 0.99687
2852.50512 0.99690
2851.07672 0.99695
2849.64833 0.99701
2848.21993 0.99709
2846.79154 0.99717
2845.36314 0.99725
2843.93475 0.99732
2842.50635 0.99739
2841.07796 0.99745
2839.64956 0.99753
2838.22117 0.99760
2836.79277 0.99767
2835.36438 0.99774
2833.93598 0.99781
2832.50759 0.99788
2831.07919 0.99795
2829.65080 0.99803
2828.22240 0.99811
2826.79401 0.99817
2825.36561 0.99823
2823.93722 0.99828
2822.50882 0.99833
2821.08043 0.99837
2819.65203 0.99842
2818.22364 0.99847
2816.79524 0.99852
2815.36684 0.99857
2813.93845 0.99862
2812.51005 0.99867
2811.08166 0.99873
2809.65326 0.99880
2808.22487 0.99887
2806.79647 0.99893
2805.36808 0.99897
2803.93968 0.99901
2802.51129 0.99903
2801.08289 0.99904
2799.65450 0.99905
2798.22610 0.99905
2796.79771 0.99905
2795.36931 0.99905
2793.94092 0.99905
2792.51252 0.99907
2791.08413 0.99911
2789.65573 0.99917
2788.22734 0.99923
2786.79894 0.99929
2785.37055 0.99933
2783.94215 0.99937
2782.51376 0.99940
2781.08536 0.99942
2779.65697 0.99943
2778.22857 0.99944
2776.80018 0.99944
2775.37178 0.99945
2773.94339 0.99947
2772.51499 0.99949
2771.08660 0.99952
2769.65820 0.99955
2768.22980 0.99959
2766.80141 0.99962
2765.37301 0.99964
2763.94462 0.99964
2762.51622 0.99964
2761.08783 0.99964
2759.65943 0.99963
2758.23104 0.99963
2756.80264 0.99962
2755.37425 0.99961
2753.94585 0.99960
2752.51746 0.99959
2751.08906 0.99958
2749.66067 0.99957
2748.23227 0.99957
2746.80388 0.99957
2745.37548 0.99957
2743.94709 0.99957
2742.51869 0.99958
2741.09030 0.99958
2739.66190 0.99958
2738.23351 0.99958
2736.80511 0.99959
2735.37672 0.99960
2733.94832 0.99961
2732.51993 0.99963
2731.09153 0.99963
2729.66314 0.99963
2728.23474 0.99963
2726.80635 0.99963
2725.37795 0.99963
2723.94956 0.99964
2722.52116 0.99965
2721.09276 0.99966
2719.66437 0.99967
2718.23597 0.99968
2716.80758 0.99969
2715.37918 0.99970
2713.95079 0.99971
2712.52239 0.99972
2711.09400 0.99973
2709.66560 0.99974
2708.23721 0.99974
2706.80881 0.99972
2705.38042 0.99970
2703.95202 0.99969
2702.52363 0.99968
2701.09523 0.99967
2699.66684 0.99967
2698.23844 0.99968
2696.81005 0.99969
2695.38165 0.99971
2693.95326 0.99973
2692.52486 0.99975
2691.09647 0.99977
2689.66807 0.99979
2688.23968 0.99980
2686.81128 0.99981
2685.38289 0.99981
2683.95449 0.99979
2682.52610 0.99977
2681.09770 0.99974
2679.66931 0.99970
2678.24091 0.99966
2676.81252 0.99963
2675.38412 0.99960
2673.95572 0.99957
2672.52733 0.99956
2671.09893 0.99956
2669.67054 0.99956
2668.24214 0.99958
2666.81375 0.99961
2665.38535 0.99965
2663.95696 0.99969
2662.52856 0.99972
2661.10017 0.99974
2659.67177 0.99976
2658.24338 0.99977
2656.81498 0.99979
2655.38659 0.99982
2653.95819 0.99984
2652.52980 0.99986
2651.10140 0.99987
2649.67301 0.99987
2648.24461 0.99987
2646.81622 0.99986
2645.38782 0.99984
2643.95943 0.99983
2642.53103 0.99980
2641.10264 0.99976
2639.67424 0.99973
2638.24585 0.99972
2636.81745 0.99973
2635.38906 0.99975
2633.96066 0.99979
2632.53227 0.99984
2631.10387 0.99988
2629.67548 0.99992
2628.24708 0.99994
2626.81868 0.99997
2625.39029 0.99999
2623.96189 0.99999
2622.53350 0.99999
2621.10510 0.99999
2619.67671 0.99998
2618.24831 0.99997
2616.81992 0.99997
2615.39152 0.99997
2613.96313 0.99998
2612.53473 0.99997
2611.10634 0.99996
2609.67794 0.99995
2608.24955 0.99995
2606.82115 0.99995
2605.39276 0.99996
2603.96436 0.99996
2602.53597 0.99996
2601.10757 0.99996
2599.67918 0.99997
2598.25078 0.99998
2596.82239 1.00000
2595.39399 1.00000
2593.96560 1.00000
2592.53720 1.00000
2591.10881 0.99999
2589.68041 0.99998
2588.25202 0.99998
2586.82362 0.99998
2585.39523 0.99998
2583.96683 0.99997
2582.53843 0.99995
2581.11004 0.99993
2579.68164 0.99990
2578.25325 0.99989
2576.82485 0.99989
2575.39646 0.99989
2573.96806 0.99989
2572.53967 0.99989
2571.11127 0.99988
2569.68288 0.99987
2568.25448 0.99987
2566.82609 0.99988
2565.39769 0.99991
2563.96930 0.99994
2562.54090 0.99996
2561.11251 0.99996
2559.68411 0.99995
2558.25572 0.99992
2556.82732 0.99990
2555.39893 0.99988
2553.97053 0.99986
2552.54214 0.99984
2551.11374 0.99981
2549.68535 0.99979
2548.25695 0.99978
2546.82856 0.99978
2545.40016 0.99980
2543.97177 0.99984
2542.54337 0.99988
2541.11498 0.99992
2539.68658 0.99995
2538.25819 0.99998
2536.82979 0.99999
2535.40139 1.00000
2533.97300 0.99999
2532.54460 0.99997
2531.11621 0.99996
2529.68781 0.99994
2528.25942 0.99992
2526.83102 0.99990
2525.40263 0.99988
2523.97423 0.99985
2522.54584 0.99984
2521.11744 0.99983
2519.68905 0.99982
2518.26065 0.99983
2516.83226 0.99985
2515.40386 0.99988
2513.97547 0.99991
2512.54707 0.99992
2511.11868 0.99992
2509.69028 0.99993
2508.26189 0.99995
2506.83349 0.99997
2505.40510 0.99998
2503.97670 0.99997
2502.54831 0.99995
2501.11991 0.99992
2499.69152 0.99988
2498.26312 0.99986
2496.83473 0.99984
2495.40633 0.99984
2493.97794 0.99986
2492.54954 0.99987
2491.12115 0.99988
2489.69275 0.99989
2488.26435 0.99990
2486.83596 0.99993
2485.40756 0.99995
2483.97917 0.99996
2482.55077 0.99994
2481.12238 0.99990
2479.69398 0.99985
2478.26559 0.99981
2476.83719 0.99980
2475.40880 0.99980
2473.98040 0.99980
2472.55201 0.99981
2471.12361 0.99982
2469.69522 0.99984
2468.26682 0.99986
2466.83843 0.99990
2465.41003 0.99993
2463.98164 0.99995
2462.55324 0.99995
2461.12485 0.99994
2459.69645 0.99993
2458.26806 0.99993
2456.83966 0.99993
2455.41127 0.99995
2453.98287 0.99997
2452.55448 0.99999
2451.12608 1.00000
2449.69769 1.00000
2448.26929 1.00000
2446.84090 1.00000
2445.41250 0.99999
2443.98411 0.99997
2442.55571 0.99994
2441.12731 0.99991
2439.69892 0.99988
2438.27052 0.99985
2436.84213 0.99982
2435.41373 0.99978
2433.98534 0.99975
2432.55694 0.99972
2431.12855 0.99971
2429.70015 0.99970
2428.27176 0.99969
2426.84336 0.99969
2425.41497 0.99970
2423.98657 0.99972
2422.55818 0.99975
2421.12978 0.99979
2419.70139 0.99985
2418.27299 0.99991
2416.84460 0.99996
2415.41620 0.99999
2413.98781 1.00000
2412.55941 1.00000
2411.13102 0.99999
2409.70262 0.99997
2408.27423 0.99994
2406.84583 0.99991
2405.41744 0.99988
2403.98904 0.99986
2402.56065 0.99985
2401.13225 0.99985
2399.70386 0.99987
2398.27546 0.99988
2396.84707 0.99990
2395.41867 0.99990
2393.99027 0.99990
2392.56188 0.99990
2391.13348 0.99990
2389.70509 0.99989
2388.27669 0.99986
2386.84830 0.99982
2385.41990 0.99977
2383.99151 0.99973
2382.56311 0.99969
2381.13472 0.99964
2379.70632 0.99957
2378.27793 0.99950
2376.84953 0.99946
2375.42114 0.99943
2373.99274 0.99940
2372.56435 0.99937
2371.13595 0.99932
2369.70756 0.99928
2368.27916 0.99923
2366.85077 0.99918
2365.42237 0.99915
2363.99398 0.99914
2362.56558 0.99916
2361.13719 0.99917
2359.70879 0.99917
2358.28040 0.99915
2356.85200 0.99915
2355.42361 0.99919
2353.99521 0.99925
2352.56682 0.99931
2351.13842 0.99935
2349.71003 0.99937
2348.28163 0.99938
2346.85323 0.99939
2345.42484 0.99940
2343.99644 0.99943
2342.56805 0.99946
2341.13965 0.99949
2339.71126 0.99949
2338.28286 0.99947
2336.85447 0.99944
2335.42607 0.99942
2333.99768 0.99941
2332.56928 0.99938
2331.14089 0.99933
2329.71249 0.99925
2328.28410 0.99917
2326.85570 0.99911
2325.42731 0.99905
2323.99891 0.99901
2322.57052 0.99900
2321.14212 0.99901
2319.71373 0.99904
2318.28533 0.99908
2316.85694 0.99914
2315.42854 0.99920
2314.00015 0.99928
2312.57175 0.99935
2311.14336 0.99939
2309.71496 0.99941
2308.28657 0.99942
2306.85817 0.99944
2305.42978 0.99945
2304.00138 0.99947
2302.57299 0.99947
2301.14459 0.99948
2299.71619 0.99949
2298.28780 0.99951
2296.85940 0.99954
2295.43101 0.99957
2294.00261 0.99962
2292.57422 0.99966
2291.14582 0.99969
2289.71743 0.99970
2288.28903 0.99972
2286.86064 0.99974
2285.43224 0.99977
2284.00385 0.99979
2282.57545 0.99978
2281.14706 0.99975
2279.71866 0.99971
2278.29027 0.99966
2276.86187 0.99962
2275.43348 0.99959
2274.00508 0.99958
2272.57669 0.99957
2271.14829 0.99954
2269.71990 0.99949
2268.29150 0.99942
2266.86311 0.99933
2265.43471 0.99925
2264.00632 0.99921
2262.57792 0.99918
2261.14953 0.99917
2259.72113 0.99916
2258.29274 0.99917
2256.86434 0.99919
2255.43595 0.99921
2254.00755 0.99923
2252.57915 0.99925
2251.15076 0.99926
2249.72236 0.99926
2248.29397 0.99924
2246.86557 0.99920
2245.43718 0.99915
2244.00878 0.99910
2242.58039 0.99906
2241.15199 0.99901
2239.72360 0.99896
2238.29520 0.99891
2236.86681 0.99885
2235.43841 0.99880
2234.01002 0.99877
2232.58162 0.99876
2231.15323 0.99877
2229.72483 0.99880
2228.29644 0.99884
2226.86804 0.99890
2225.43965 0.99896
2224.01125 0.99900
2222.58286 0.99903
2221.15446 0.99905
2219.72607 0.99905
2218.29767 0.99905
2216.86928 0.99904
2215.44088 0.99900
2214.01249 0.99894
2212.58409 0.99888
2211.15570 0.99883
2209.72730 0.99881
2208.29891 0.99883
2206.87051 0.99887
2205.44211 0.99892
2204.01372 0.99898
2202.58532 0.99905
2201.15693 0.99912
2199.72853 0.99920
2198.30014 0.99930
2196.87174 0.99940
2195.44335 0.99952
2194.01495 0.99966
2192.58656 0.99981
2191.15816 0.99993
2189.72977 1.00000
2188.30137 1.00000
2186.87298 0.99995
2185.44458 0.99987
2184.01619 0.99976
2182.58779 0.99965
2181.15940 0.99952
2179.73100 0.99937
2178.30261 0.99918
2176.87421 0.99897
2175.44582 0.99880
2174.01742 0.99872
2172.58903 0.99877
2171.16063 0.99889
2169.73224 0.99902
2168.30384 0.99912
2166.87545 0.99919
2165.44705 0.99924
2164.01866 0.99930
2162.59026 0.99937
2161.16187 0.99944
2159.73347 0.99949
2158.30507 0.99950
2156.87668 0.99946
2155.44828 0.99941
2154.01989 0.99939
2152.59149 0.99939
2151.16310 0.99939
2149.73470 0.99935
2148.30631 0.99925
2146.87791 0.99915
2145.44952 0.99909
2144.02112 0.99908
2142.59273 0.99912
2141.16433 0.99917
2139.73594 0.99920
2138.30754 0.99920
2136.87915 0.99917
2135.45075 0.99916
2134.02236 0.99919
2132.59396 0.99926
2131.16557 0.99934
2129.73717 0.99938
2128.30878 0.99938
2126.88038 0.99935
2125.45199 0.99932
2124.02359 0.99932
2122.59520 0.99934
2121.16680 0.99936
2119.73841 0.99937
2118.31001 0.99935
2116.88162 0.99929
2115.45322 0.99923
2114.02483 0.99917
2112.59643 0.99914
2111.16803 0.99911
2109.73964 0.99907
2108.31124 0.99902
2106.88285 0.99896
2105.45445 0.99891
2104.02606 0.99888
2102.59766 0.99887
2101.16927 0.99886
2099.74087 0.99883
2098.31248 0.99880
2096.88408 0.99879
2095.45569 0.99881
2094.02729 0.99887
2092.59890 0.99897
2091.17050 0.99910
2089.74211 0.99924
2088.31371 0.99936
2086.88532 0.99947
2085.45692 0.99956
2084.02853 0.99964
2082.60013 0.99970
2081.17174 0.99973
2079.74334 0.99971
2078.31495 0.99964
2076.88655 0.99953
2075.45816 0.99942
2074.02976 0.99933
2072.60137 0.99930
2071.17297 0.99931
2069.74458 0.99937
2068.31618 0.99945
2066.88779 0.99953
2065.45939 0.99958
2064.03099 0.99961
2062.60260 0.99962
2061.17420 0.99959
2059.74581 0.99955
2058.31741 0.99951
2056.88902 0.99951
2055.46062 0.99956
2054.03223 0.99963
2052.60383 0.99970
2051.17544 0.99977
2049.74704 0.99985
2048.31865 0.99993
2046.89025 0.99999
2045.46186 1.00000
2044.03346 0.99997
2042.60507 0.99992
2041.17667 0.99985
2039.74828 0.99977
2038.31988 0.99969
2036.89149 0.99964
2035.46309 0.99963
2034.03470 0.99963
2032.60630 0.99961
2031.17791 0.99956
2029.74951 0.99951
2028.32112 0.99949
2026.89272 0.99951
2025.46433 0.99956
2024.03593 0.99960
2022.60754 0.99963
2021.17914 0.99966
2019.75075 0.99970
2018.32235 0.99974
2016.89395 0.99978
2015.46556 0.99984
2014.03716 0.99988
2012.60877 0.99990
2011.18037 0.99987
2009.75198 0.99980
2008.32358 0.99973
2006.89519 0.99968
2005.46679 0.99967
2004.03840 0.99969
2002.61000 0.99969
2001.18161 0.99968
1999.75321 0.99965
1998.32482 0.99964
1996.89642 0.99965
1995.46803 0.99967
1994.03963 0.99971
1992.61124 0.99976
1991.18284 0.99982
1989.75445 0.99988
1988.32605 0.99991
1986.89766 0.99988
1985.46926 0.99980
1984.04087 0.99969
1982.61247 0.99958
1981.18408 0.99948
1979.75568 0.99938
1978.32729 0.99926
1976.89889 0.99911
1975.47050 0.99896
1974.04210 0.99883
1972.61371 0.99874
1971.18531 0.99870
1969.75691 0.99872
1968.32852 0.99879
1966.90012 0.99891
1965.47173 0.99905
1964.04333 0.99918
1962.61494 0.99927
1961.18654 0.99935
1959.75815 0.99944
1958.32975 0.99953
1956.90136 0.99957
1955.47296 0.99955
1954.04457 0.99947
1952.61617 0.99934
1951.18778 0.99920
1949.75938 0.99905
1948.33099 0.99892
1946.90259 0.99881
1945.47420 0.99876
1944.04580 0.99876
1942.61741 0.99880
1941.18901 0.99883
1939.76062 0.99886
1938.33222 0.99889
1936.90383 0.99893
1935.47543 0.99898
1934.04704 0.99903
1932.61864 0.99907
1931.19025 0.99908
1929.76185 0.99908
1928.33346 0.99906
1926.90506 0.99903
1925.47667 0.99901
1924.04827 0.99901
1922.61987 0.99904
1921.19148 0.99908
1919.76308 0.99911
1918.33469 0.99912
1916.90629 0.99911
1915.47790 0.99908
1914.04950 0.99905
1912.62111 0.99903
1911.19271 0.99902
1909.76432 0.99903
1908.33592 0.99904
1906.90753 0.99904
1905.47913 0.99903
1904.05074 0.99902
1902.62234 0.99900
1901.19395 0.99900
1899.76555 0.99899
1898.33716 0.99898
1896.90876 0.99896
1895.48037 0.99893
1894.05197 0.99891
1892.62358 0.99891
1891.19518 0.99894
1889.76679 0.99900
1888.33839 0.99909
1886.91000 0.99917
1885.48160 0.99923
1884.05321 0.99927
1882.62481 0.99930
1881.19642 0.99931
1879.76802 0.99931
1878.33963 0.99926
1876.91123 0.99917
1875.48283 0.99907
1874.05444 0.99896
1872.62604 0.99888
1871.19765 0.99882
1869.76925 0.99878
1868.34086 0.99877
1866.91246 0.99878
1865.48407 0.99880
1864.05567 0.99882
1862.62728 0.99885
1861.19888 0.99889
1859.77049 0.99895
1858.34209 0.99901
1856.91370 0.99906
1855.48530 0.99907
1854.05691 0.99906
1852.62851 0.99902
1851.20012 0.99899
1849.77172 0.99896
1848.34333 0.99894
1846.91493 0.99894
1845.48654 0.99894
1844.05814 0.99894
1842.62975 0.99895
1841.20135 0.99894
1839.77296 0.99892
1838.34456 0.99888
1836.91617 0.99884
1835.48777 0.99881
1834.05938 0.99877
1832.63098 0.99872
1831.20258 0.99867
1829.77419 0.99863
1828.34579 0.99862
1826.91740 0.99864
1825.48900 0.99869
1824.06061 0.99877
1822.63221 0.99885
1821.20382 0.99892
1819.77542 0.99897
1818.34703 0.99899
1816.91863 0.99897
1815.49024 0.99893
1814.06184 0.99890
1812.63345 0.99886
1811.20505 0.99882
1809.77666 0.99877
1808.34826 0.99872
1806.91987 0.99868
1805.49147 0.99864
1804.06308 0.99861
1802.63468 0.99858
1801.20629 0.99855
1799.77789 0.99852
1798.34950 0.99850
1796.92110 0.99849
1795.49271 0.99850
1794.06431 0.99852
1792.63592 0.99856
1791.20752 0.99861
1789.77913 0.99865
1788.35073 0.99868
1786.92234 0.99870
1785.49394 0.99871
1784.06554 0.99872
1782.63715 0.99870
1781.20875 0.99866
1779.78036 0.99859
1778.35196 0.99851
1776.92357 0.99845
1775.49517 0.99841
1774.06678 0.99840
1772.63838 0.99840
1771.20999 0.99842
1769.78159 0.99845
1768.35320 0.99848
1766.92480 0.99852
1765.49641 0.99856
1764.06801 0.99861
1762.63962 0.99865
1761.21122 0.99868
1759.78283 0.99867
1758.35443 0.99862
1756.92604 0.99854
1755.49764 0.99844
1754.06925 0.99834
1752.64085 0.99824
1751.21246 0.99816
1749.78406 0.99809
1748.35567 0.99802
1746.92727 0.99797
1745.49888 0.99794
1744.07048 0.99791
1742.64209 0.99790
1741.21369 0.99788
1739.78530 0.99786
1738.35690 0.99785
1736.92850 0.99784
1735.50011 0.99785
1734.07171 0.99787
1732.64332 0.99791
1731.21492 0.99798
1729.78653 0.99806
1728.35813 0.99814
1726.92974 0.99819
1725.50134 0.99818
1724.07295 0.99814
1722.64455 0.99807
1721.21616 0.99799
1719.78776 0.99791
1718.35937 0.99786
1716.93097 0.99783
1715.50258 0.99782
1714.07418 0.99781
1712.64579 0.99782
1711.21739 0.99784
1709.78900 0.99787
1708.36060 0.99788
1706.93221 0.99785
1705.50381 0.99778
1704.07542 0.99768
1702.64702 0.99759
1701.21863 0.99754
1699.79023 0.99755
1698.36184 0.99760
1696.93344 0.99769
1695.50505 0.99779
1694.07665 0.99785
1692.64826 0.99786
1691.21986 0.99784
1689.79146 0.99781
1688.36307 0.99776
1686.93467 0.99771
1685.50628 0.99763
1684.07788 0.99754
1682.64949 0.99747
1681.22109 0.99742
1679.79270 0.99737
1678.36430 0.99734
1676.93591 0.99732
1675.50751 0.99730
1674.07912 0.99729
1672.65072 0.99726
1671.22233 0.99719
1669.79393 0.99711
1668.36554 0.99704
1666.93714 0.99699
1665.50875 0.99696
1664.08035 0.99689
1662.65196 0.99680
1661.22356 0.99669
1659.79517 0.99659
1658.36677 0.99647
1656.93838 0.99634
1655.50998 0.99624
1654.08159 0.99620
1652.65319 0.99623
1651.22480 0.99634
1649.79640 0.99650
1648.36801 0.99671
1646.93961 0.99694
1645.51122 0.99719
1644.08282 0.99743
1642.65442 0.99768
1641.22603 0.99790
1639.79763 0.99812
1638.36924 0.99835
1636.94084 0.99855
1635.51245 0.99872
1634.08405 0.99885
1632.65566 0.99897
1631.22726 0.99910
1629.79887 0.99924
1628.37047 0.99938
1626.94208 0.99949
1625.51368 0.99957
1624.08529 0.99960
1622.65689 0.99963
1621.22850 0.99968
1619.80010 0.99974
1618.37171 0.99980
1616.94331 0.99985
1615.51492 0.99988
1614.08652 0.99992
1612.65813 0.99996
1611.22973 0.99998
1609.80134 0.99999
1608.37294 1.00000
1606.94455 1.00000
1605.51615 1.00000
1604.08776 0.99996
1602.65936 0.99992
1601.23097 0.99988
1599.80257 0.99985
1598.37418 0.99981
1596.94578 0.99977
1595.51738 0.99971
1594.08899 0.99966
1592.66059 0.99963
1591.23220 0.99961
1589.80380 0.99961
1588.37541 0.99961
1586.94701 0.99959
1585.51862 0.99954
1584.09022 0.99945
1582.66183 0.99936
1581.23343 0.99926
1579.80504 0.99915
1578.37664 0.99902
1576.94825 0.99888
1575.51985 0.99873
1574.09146 0.99860
1572.66306 0.99850
1571.23467 0.99843
1569.80627 0.99840
1568.37788 0.99835
1566.94948 0.99827
1565.52109 0.99815
1564.09269 0.99800
1562.66430 0.99782
1561.23590 0.99765
1559.80751 0.99749
1558.37911 0.99733
1556.95072 0.99719
1555.52232 0.99706
1554.09393 0.99697
1552.66553 0.99689
1551.23714 0.99677
1549.80874 0.99664
1548.38034 0.99655
1546.95195 0.99647
1545.52355 0.99640
1544.09516 0.99636
1542.66676 0.99634
1541.23837 0.99637
1539.80997 0.99644
1538.38158 0.99655
1536.95318 0.99670
1535.52479 0.99688
1534.09639 0.99709
1532.66800 0.99727
1531.23960 0.99739
1529.81121 0.99742
1528.38281 0.99738
1526.95442 0.99732
1525.52602 0.99729
1524.09763 0.99730
1522.66923 0.99734
1521.24084 0.99739
1519.81244 0.99745
1518.38405 0.99749
1516.95565 0.99746
1515.52726 0.99741
1514.09886 0.99736
1512.67047 0.99734
1511.24207 0.99734
1509.81368 0.99735
1508.38528 0.99737
1506.95689 0.99741
1505.52849 0.99746
1504.10010 0.99755
1502.67170 0.99767
1501.24330 0.99783
1499.81491 0.99798
1498.38651 0.99809
1496.95812 0.99812
1495.52972 0.99806
1494.10133 0.99795
1492.67293 0.99786
1491.24454 0.99780
1489.81614 0.99776
1488.38775 0.99774
1486.95935 0.99771
1485.53096 0.99766
1484.10256 0.99755
1482.67417 0.99737
1481.24577 0.99713
1479.81738 0.99685
1478.38898 0.99652
1476.96059 0.99615
1475.53219 0.99575
1474.10380 0.99534
1472.67540 0.99495
1471.24701 0.99460
1469.81861 0.99431
1468.39022 0.99404
1466.96182 0.99378
1465.53343 0.99354
1464.10503 0.99333
1462.67664 0.99315
1461.24824 0.99298
1459.81985 0.99282
1458.39145 0.99269
1456.96306 0.99261
1455.53466 0.99256
1454.10626 0.99253
1452.67787 0.99250
1451.24947 0.99246
1449.82108 0.99242
1448.39268 0.99237
1446.96429 0.99227
1445.53589 0.99208
1444.10750 0.99182
1442.67910 0.99152
1441.25071 0.99123
1439.82231 0.99093
1438.39392 0.99064
1436.96552 0.99035
1435.53713 0.99009
1434.10873 0.98983
1432.68034 0.98958
1431.25194 0.98936
1429.82355 0.98914
1428.39515 0.98891
1426.96676 0.98870
1425.53836 0.98849
1424.10997 0.98830
1422.68157 0.98813
1421.25318 0.98799
1419.82478 0.98791
1418.39639 0.98786
1416.96799 0.98786
1415.53960 0.98789
1414.11120 0.98796
1412.68281 0.98806
1411.25441 0.98820
1409.82602 0.98835
1408.39762 0.98850
1406.96922 0.98863
1405.54083 0.98872
1404.11243 0.98882
1402.68404 0.98894
1401.25564 0.98912
1399.82725 0.98933
1398.39885 0.98957
1396.97046 0.98983
1395.54206 0.99009
1394.11367 0.99036
1392.68527 0.99065
1391.25688 0.99095
1389.82848 0.99126
1388.40009 0.99158
1386.97169 0.99187
1385.54330 0.99212
1384.11490 0.99232
1382.68651 0.99246
1381.25811 0.99257
1379.82972 0.99268
1378.40132 0.99279
1376.97293 0.99289
1375.54453 0.99297
1374.11614 0.99305
1372.68774 0.99311
1371.25935 0.99316
1369.83095 0.99322
1368.40256 0.99327
1366.97416 0.99334
1365.54577 0.99341
1364.11737 0.99348
1362.68898 0.99353
1361.26058 0.99356
1359.83218 0.99357
1358.40379 0.99357
1356.97539 0.99358
1355.54700 0.99359
1354.11860 0.99361
1352.69021 0.99364
1351.26181 0.99364
1349.83342 0.99361
1348.40502 0.99354
1346.97663 0.99346
1345.54823 0.99338
1344.11984 0.99332
1342.69144 0.99328
1341.26305 0.99324
1339.83465 0.99320
1338.40626 0.99317
1336.97786 0.99313
1335.54947 0.99311
1334.12107 0.99309
1332.69268 0.99308
1331.26428 0.99309
1329.83589 0.99310
1328.40749 0.99309
1326.97910 0.99306
1325.55070 0.99301
1324.12231 0.99296
1322.69391 0.99291
1321.26552 0.99287
1319.83712 0.99284
1318.40873 0.99282
1316.98033 0.99280
1315.55194 0.99279
1314.12354 0.99279
1312.69514 0.99279
1311.26675 0.99281
1309.83835 0.99284
1308.40996 0.99288
1306.98156 0.99292
1305.55317 0.99295
1304.12477 0.99297
1302.69638 0.99299
1301.26798 0.99301
1299.83959 0.99304
1298.41119 0.99307
1296.98280 0.99311
1295.55440 0.99316
1294.12601 0.99322
1292.69761 0.99328
1291.26922 0.99335
1289.84082 0.99342
1288.41243 0.99350
1286.98403 0.99357
1285.55564 0.99364
1284.12724 0.99370
1282.69885 0.99376
1281.27045 0.99382
1279.84206 0.99388
1278.41366 0.99395
1276.98527 0.99399
1275.55687 0.99401
1274.12848 0.99401
1272.70008 0.99400
1271.27169 0.99396
1269.84329 0.99391
1268.41490 0.99383
1266.98650 0.99372
1265.55810 0.99361
1264.12971 0.99352
1262.70131 0.99344
1261.27292 0.99340
1259.84452 0.99339
1258.41613 0.99342
1256.98773 0.99347
1255.55934 0.99355
1254.13094 0.99363
1252.70255 0.99373
1251.27415 0.99382
1249.84576 0.99390
1248.41736 0.99397
1246.98897 0.99401
1245.56057 0.99404
1244.13218 0.99406
1242.70378 0.99406
1241.27539 0.99406
1239.84699 0.99406
1238.41860 0.99405
1236.99020 0.99405
1235.56181 0.99404
1234.13341 0.99404
1232.70502 0.99403
1231.27662 0.99401
1229.84823 0.99398
1228.41983 0.99394
1226.99144 0.99389
1225.56304 0.99385
1224.13465 0.99382
1222.70625 0.99378
1221.27786 0.99374
1219.84946 0.99371
1218.42106 0.99369
1216.99267 0.99369
1215.56427 0.99373
1214.13588 0.99380
1212.70748 0.99391
1211.27909 0.99404
1209.85069 0.99420
1208.42230 0.99439
1206.99390 0.99460
1205.56551 0.99484
1204.13711 0.99511
1202.70872 0.99541
1201.28032 0.99572
1199.85193 0.99604
1198.42353 0.99636
1196.99514 0.99667
1195.56674 0.99698
1194.13835 0.99728
1192.70995 0.99756
1191.28156 0.99783
1189.85316 0.99807
1188.42477 0.99828
1186.99637 0.99847
1185.56798 0.99864
1184.13958 0.99879
1182.71119 0.99892
1181.28279 0.99905
1179.85440 0.99917
1178.42600 0.99928
1176.99761 0.99940
1175.56921 0.99950
1174.14082 0.99959
1172.71242 0.99966
1171.28402 0.99973
1169.85563 0.99979
1168.42723 0.99985
1166.99884 0.99991
1165.57044 0.99995
1164.14205 0.99998
1162.71365 1.00000
1161.28526 1.00000
1159.85686 0.99998
1158.42847 0.99992
1157.00007 0.99983
1155.57168 0.99969
1154.14328 0.99949
1152.71489 0.99921
1151.28649 0.99886
1149.85810 0.99843
1148.42970 0.99795
1147.00131 0.99741
1145.57291 0.99685
1144.14452 0.99629
1142.71612 0.99572
1141.28773 0.99517
1139.85933 0.99467
1138.43094 0.99422
1137.00254 0.99385
1135.57415 0.99356
1134.14575 0.99334
1132.71736 0.99319
1131.28896 0.99309
1129.86057 0.99301
1128.43217 0.99292
1127.00378 0.99282
1125.57538 0.99268
1124.14698 0.99250
1122.71859 0.99224
1121.29019 0.99191
1119.86180 0.99151
1118.43340 0.99104
1117.00501 0.99049
1115.57661 0.98986
1114.14822 0.98915
1112.71982 0.98838
1111.29143 0.98757
1109.86303 0.98673
1108.43464 0.98587
1107.00624 0.98500
1105.57785 0.98414
1104.14945 0.98329
1102.72106 0.98245
1101.29266 0.98159
1099.86427 0.98070
1098.43587 0.97979
1097.00748 0.97886
1095.57908 0.97791
1094.15069 0.97694
1092.72229 0.97597
1091.29390 0.97503
1089.86550 0.97414
1088.43711 0.97336
1087.00871 0.97274
1085.58032 0.97231
1084.15192 0.97213
1082.72353 0.97220
1081.29513 0.97254
1079.86673 0.97312
1078.43834 0.97390
1077.00994 0.97484
1075.58155 0.97587
1074.15315 0.97694
1072.72476 0.97798
1071.29636 0.97896
1069.86797 0.97981
1068.43957 0.98051
1067.01118 0.98103
1065.58278 0.98139
1064.15439 0.98158
1062.72599 0.98162
1061.29760 0.98150
1059.86920 0.98127
1058.44081 0.98095
1057.01241 0.98057
1055.58402 0.98017
1054.15562 0.97975
1052.72723 0.97933
1051.29883 0.97896
1049.87044 0.97866
1048.44204 0.97846
1047.01365 0.97837
1045.58525 0.97839
1044.15686 0.97851
1042.72846 0.97870
1041.30007 0.97893
1039.87167 0.97916
1038.44328 0.97936
1037.01488 0.97954
1035.58649 0.97969
1034.15809 0.97984
1032.72969 0.97999
1031.30130 0.98014
1029.87290 0.98033
1028.44451 0.98055
1027.01611 0.98084
1025.58772 0.98118
1024.15932 0.98159
1022.73093 0.98205
1021.30253 0.98255
1019.87414 0.98308
1018.44574 0.98361
1017.01735 0.98411
1015.58895 0.98458
1014.16056 0.98500
1012.73216 0.98540
1011.30377 0.98577
1009.87537 0.98613
1008.44698 0.98647
1007.01858 0.98683
1005.59019 0.98723
1004.16179 0.98769
1002.73340 0.98823
1001.30500 0.98885
999.87661 0.98955
998.44821 0.99031
997.01982 0.99112
995.59142 0.99195
994.16303 0.99275
992.73463 0.99351
991.30624 0.99422
989.87784 0.99486
988.44945 0.99543
987.02105 0.99592
985.59265 0.99633
984.16426 0.99668
982.73586 0.99698
981.30747 0.99724
979.87907 0.99747
978.45068 0.99767
977.02228 0.99783
975.59389 0.99798
974.16549 0.99811
972.73710 0.99821
971.30870 0.99829
969.88031 0.99835
968.45191 0.99839
967.02352 0.99842
965.59512 0.99842
964.16673 0.99840
962.73833 0.99836
961.30994 0.99832
959.88154 0.99828
958.45315 0.99826
957.02475 0.99824
955.59636 0.99823
954.16796 0.99824
952.73957 0.99828
951.31117 0.99832
949.88278 0.99837
948.45438 0.99842
947.02599 0.99847
945.59759 0.99851
944.16920 0.99855
942.74080 0.99858
941.31241 0.99860
939.88401 0.99861
938.45561 0.99860
937.02722 0.99858
935.59882 0.99855
934.17043 0.99854
932.74203 0.99855
931.31364 0.99858
929.88524 0.99863
928.45685 0.99868
927.02845 0.99871
925.60006 0.99875
924.17166 0.99881
922.74327 0.99891
921.31487 0.99903
919.88648 0.99918
918.45808 0.99933
917.02969 0.99948
915.60129 0.99962
914.17290 0.99975
912.74450 0.99986
911.31611 0.99995
909.88771 1.00000
908.45932 0.99999
907.03092 0.99990
905.60253 0.99973
904.17413 0.99948
902.74574 0.99917
901.31734 0.99881
899.88895 0.99843
898.46055 0.99803
897.03216 0.99763
895.60376 0.99726
894.17537 0.99692
892.74697 0.99663
891.31857 0.99640
889.89018 0.99622
888.46178 0.99608
887.03339 0.99598
885.60499 0.99593
884.17660 0.99591
882.74820 0.99594
881.31981 0.99599
879.89141 0.99607
878.46302 0.99618
877.03462 0.99631
875.60623 0.99645
874.17783 0.99659
872.74944 0.99675
871.32104 0.99692
869.89265 0.99712
868.46425 0.99731
867.03586 0.99747
865.60746 0.99761
864.17907 0.99774
862.75067 0.99785
861.32228 0.99798
859.89388 0.99811
858.46549 0.99824
857.03709 0.99837
855.60870 0.99849
854.18030 0.99859
852.75191 0.99870
851.32351 0.99881
849.89512 0.99893
848.46672 0.99906
847.03833 0.99917
845.60993 0.99926
844.18153 0.99934
842.75314 0.99942
841.32474 0.99949
839.89635 0.99956
838.46795 0.99962
837.03956 0.99968
835.61116 0.99972
834.18277 0.99974
832.75437 0.99974
831.32598 0.99971
829.89758 0.99967
828.46919 0.99964
827.04079 0.99960
825.61240 0.99955
824.18400 0.99950
822.75561 0.99948
821.32721 0.99947
819.89882 0.99947
818.47042 0.99948
817.04203 0.99950
815.61363 0.99952
814.18524 0.99955
812.75684 0.99956
811.32845 0.99951
809.90005 0.99940
808.47166 0.99927
807.04326 0.99915
805.61487 0.99905
804.18647 0.99896
802.75808 0.99889
801.32968 0.99884
799.90129 0.99882
798.47289 0.99882
797.04449 0.99883
795.61610 0.99885
794.18770 0.99889
792.75931 0.99895
791.33091 0.99901
789.90252 0.99905
788.47412 0.99905
787.04573 0.99902
785.61733 0.99899
784.18894 0.99896
782.76054 0.99894
781.33215 0.99892
779.90375 0.99889
778.47536 0.99886
777.04696 0.99881
775.61857 0.99877
774.19017 0.99873
772.76178 0.99872
771.33338 0.99873
769.90499 0.99876
768.47659 0.99877
767.04820 0.99876
765.61980 0.99870
764.19141 0.99862
762.76301 0.99852
761.33462 0.99843
759.90622 0.99832
758.47783 0.99820
757.04943 0.99807
755.62104 0.99793
754.19264 0.99781
752.76425 0.99773
751.33585 0.99767
749.90745 0.99763
748.47906 0.99759
747.05066 0.99752
745.62227 0.99745
744.19387 0.99741
742.76548 0.99742
741.33708 0.99748
739.90869 0.99756
738.48029 0.99763
737.05190 0.99768
735.62350 0.99772
734.19511 0.99777
732.76671 0.99785
731.33832 0.99795
729.90992 0.99804
728.48153 0.99808
727.05313 0.99806
725.62474 0.99799
724.19634 0.99791
722.76795 0.99785
721.33955 0.99784
719.91116 0.99789
718.48276 0.99796
717.05437 0.99802
715.62597 0.99805
714.19758 0.99807
712.76918 0.99808
711.34079 0.99811
709.91239 0.99815
708.48400 0.99819
707.05560 0.99821
705.62721 0.99819
704.19881 0.99813
702.77041 0.99804
701.34202 0.99794
699.91362 0.99786
698.48523 0.99783
697.05683 0.99783
695.62844 0.99786
694.20004 0.99789
692.77165 0.99792
691.34325 0.99794
689.91486 0.99796
688.48646 0.99798
687.05807 0.99802
685.62967 0.99807
684.20128 0.99810
682.77288 0.99810
681.34449 0.99808
679.91609 0.99804
678.48770 0.99802
677.05930 0.99803
675.63091 0.99807
674.20251 0.99811
672.77412 0.99814
671.34572 0.99815
669.91733 0.99816
668.48893 0.99815
667.06054 0.99813
665.63214 0.99813
664.20375 0.99816
662.77535 0.99821
661.34696 0.99824
659.91856 0.99828
658.49017 0.99832
657.06177 0.99837
655.63337 0.99841
654.20498 0.99845
652.77658 0.99844
651.34819 0.99838
649.91979 0.99826
648.49140 0.99812
647.06300 0.99796
645.63461 0.99778
644.20621 0.99763
642.77782 0.99753
641.34942 0.99748
639.92103 0.99744
638.49263 0.99739
637.06424 0.99737
635.63584 0.99738
634.20745 0.99743
632.77905 0.99750
631.35066 0.99758
629.92226 0.99762
628.49387 0.99762
627.06547 0.99756
625.63708 0.99746
624.20868 0.99734
622.78029 0.99724
621.35189 0.99717
619.92350 0.99713
618.49510 0.99711
617.06671 0.99711
615.63831 0.99714
614.20992 0.99723
612.78152 0.99739
611.35313 0.99760
609.92473 0.99782
608.49633 0.99801
607.06794 0.99810
605.63954 0.99805
604.21115 0.99785
602.78275 0.99756
601.35436 0.99729
599.92596 0.99708
598.49757 0.99692
597.06917 0.99683
595.64078 0.99681
594.21238 0.99687
592.78399 0.99697
591.35559 0.99707
589.92720 0.99716
588.49880 0.99723
587.07041 0.99729
585.64201 0.99730
584.21362 0.99724
582.78522 0.99713
581.35683 0.99699
579.92843 0.99688
578.50004 0.99680
577.07164 0.99679
575.64325 0.99683
574.21485 0.99690
572.78646 0.99696
571.35806 0.99699
569.92967 0.99696
568.50127 0.99689
567.07288 0.99679
565.64448 0.99670
564.21609 0.99662
562.78769 0.99657
561.35929 0.99658
559.93090 0.99665
558.50250 0.99677
557.07411 0.99691
555.64571 0.99705
554.21732 0.99720
552.78892 0.99736
551.36053 0.99747
549.93213 0.99751
548.50374 0.99750
547.07534 0.99748
545.64695 0.99748
544.21855 0.99747
542.79016 0.99743
541.36176 0.99734
539.93337 0.99725
538.50497 0.99716
537.07658 0.99711
535.64818 0.99712
534.21979 0.99716
532.79139 0.99717
531.36300 0.99713
529.93460 0.99708
528.50621 0.99704
527.07781 0.99701
525.64942 0.99697
524.22102 0.99693
522.79263 0.99684
521.36423 0.99663
519.93584 0.99626
518.50744 0.99586
517.07905 0.99555
515.65065 0.99545
514.22225 0.99558
512.79386 0.99583
511.36546 0.99608
509.93707 0.99625
508.50867 0.99636
507.08028 0.99642
505.65188 0.99643
504.22349 0.99638
502.79509 0.99630
501.36670 0.99620
499.93830 0.99606
498.50991 0.99591
497.08151 0.99578
495.65312 0.99577
494.22472 0.99593
492.79633 0.99626
491.36793 0.99664
489.93954 0.99695
488.51114 0.99707
487.08275 0.99696
485.65435 0.99663
484.22596 0.99612
482.79756 0.99540
481.36917 0.99451
479.94077 0.99356
478.51238 0.99270
477.08398 0.99207
475.65559 0.99174
474.22719 0.99169
472.79880 0.99189
471.37040 0.99232
469.94201 0.99298
468.51361 0.99379
467.08521 0.99464
465.65682 0.99554
464.22842 0.99654
462.80003 0.99771
461.37163 0.99886
459.94324 0.99970
458.51484 1.00000
457.08645 0.99980
455.65805 0.99908
454.22966 0.99794
452.80126 0.99653
451.37287 0.99502
449.94447 0.99358
448.51608 0.99240
447.08768 0.99153
445.65929 0.99097
444.23089 0.99075
442.80250 0.99105
441.37410 0.99198
439.94571 0.99341
438.51731 0.99498
437.08892 0.99625
435.66052 0.99688
434.23213 0.99676
432.80373 0.99599
431.37534 0.99488
429.94694 0.99384
428.51855 0.99307
427.09015 0.99243
425.66176 0.99187
424.23336 0.99147
422.80497 0.99145
421.37657 0.99195
419.94817 0.99292
418.51978 0.99416
417.09138 0.99546
415.66299 0.99667
414.23459 0.99778
412.80620 0.99867
411.37780 0.99941
409.94941 0.99949
408.52101 0.99956
407.09262 0.99963
405.66422 0.99971
404.23583 0.99978
402.80743 0.99985
401.37904 0.99993
399.95064 1.00000
