3998.07136 1.00017
3996.64296 1.00016
3995.21457 1.00016
3993.78618 1.00015
3992.35779 1.00015
3990.92939 1.00014
3989.50100 1.00014
3988.07261 1.00014
3986.64422 1.00014
3985.21582 1.00013
3983.78743 1.00011
3982.35904 1.00008
3980.93064 1.00004
3979.50225 0.99999
3978.07386 0.99994
3976.64547 0.99989
3975.21707 0.99985
3973.78868 0.99982
3972.36029 0.99981
3970.93189 0.99981
3969.50350 0.99982
3968.07511 0.99983
3966.64672 0.99984
3965.21832 0.99984
3963.78993 0.99984
3962.36154 0.99984
3960.93315 0.99982
3959.50475 0.99981
3958.07636 0.99980
3956.64797 0.99980
3955.21957 0.99980
3953.79118 0.99982
3952.36279 0.99985
3950.93440 0.99988
3949.50600 0.99992
3948.07761 0.99996
3946.64922 0.99999
3945.22082 1.00000
3943.79243 1.00000
3942.36404 0.99998
3940.93565 0.99994
3939.50725 0.99988
3938.07886 0.99982
3936.65047 0.99975
3935.22208 0.99970
3933.79368 0.99966
3932.36529 0.99964
3930.93690 0.99965
3929.50850 0.99968
3928.08011 0.99973
3926.65172 0.99978
3925.22333 0.99982
3923.79493 0.99985
3922.36654 0.99986
3920.93815 0.99985
3919.50976 0.99982
3918.08136 0.99978
3916.65297 0.99975
3915.22458 0.99972
3913.79618 0.99971
3912.36779 0.99973
3910.93940 0.99976
3909.51101 0.99981
3908.08261 0.99985
3906.65422 0.99989
3905.22583 0.99991
3903.79743 0.99991
3902.36904 0.99989
3900.94065 0.99985
3899.51226 0.99980
3898.08386 0.99975
3896.65547 0.99971
3895.22708 0.99968
3893.79869 0.99966
3892.37029 0.99966
3890.94190 0.99967
3889.51351 0.99968
3888.08511 0.99968
3886.65672 0.99969
3885.22833 0.99969
3883.79994 0.99970
3882.37154 0.99970
3880.94315 0.99971
3879.51476 0.99971
3878.08636 0.99971
3876.65797 0.99971
3875.22958 0.99969
3873.80119 0.99966
3872.37279 0.99961
3870.94440 0.99956
3869.51601 0.99951
3868.08762 0.99947
3866.65922 0.99945
3865.23083 0.99945
3863.80244 0.99946
3862.37404 0.99949
3860.94565 0.99951
3859.51726 0.99953
3858.08887 0.99953
3856.66047 0.99952
3855.23208 0.99949
3853.80369 0.99945
3852.37530 0.99939
3850.94690 0.99934
3849.51851 0.99931
3848.09012 0.99929
3846.66172 0.99929
3845.23333 0.99931
3843.80494 0.99934
3842.37655 0.99937
3840.94815 0.99940
3839.51976 0.99942
3838.09137 0.99942
3836.66297 0.99941
3835.23458 0.99939
3833.80619 0.99937
3832.37780 0.99934
3830.94940 0.99932
3829.52101 0.99929
3828.09262 0.99927
3826.66423 0.99924
3825.23583 0.99922
3823.80744 0.99919
3822.37905 0.99916
3820.95065 0.99913
3819.52226 0.99910
3818.09387 0.99907
3816.66548 0.99907
3815.23708 0.99907
3813.80869 0.99908
3812.38030 0.99910
3810.95190 0.99912
3809.52351 0.99914
3808.09512 0.99915
3806.66673 0.99916
3805.23833 0.99915
3803.80994 0.99912
3802.38155 0.99909
3800.95316 0.99905
3799.52476 0.99902
3798.09637 0.99899
3796.66798 0.99897
3795.23958 0.99895
3793.81119 0.99894
3792.38280 0.99892
3790.95441 0.99890
3789.52601 0.99886
3788.09762 0.99882
3786.66923 0.99878
3785.24083 0.99875
3783.81244 0.99873
3782.38405 0.99873
3780.95566 0.99874
3779.52726 0.99875
3778.09887 0.99877
3776.67048 0.99878
3775.24209 0.99878
3773.81369 0.99877
3772.38530 0.99874
3770.95691 0.99872
3769.52851 0.99870
3768.10012 0.99870
3766.67173 0.99872
3765.24334 0.99874
3763.81494 0.99878
3762.38655 0.99881
3760.95816 0.99884
3759.52977 0.99886
3758.10137 0.99887
3756.67298 0.99885
3755.24459 0.99881
3753.81619 0.99876
3752.38780 0.99870
3750.95941 0.99863
3749.53102 0.99856
3748.10262 0.99849
3746.67423 0.99843
3745.24584 0.99839
3743.81744 0.99836
3742.38905 0.99835
3740.96066 0.99835
3739.53227 0.99835
3738.10387 0.99834
3736.67548 0.99832
3735.24709 0.99828
3733.81870 0.99824
3732.39030 0.99818
3730.96191 0.99813
3729.53352 0.99809
3728.10512 0.99807
3726.67673 0.99808
3725.24834 0.99811
3723.81995 0.99815
3722.39155 0.99821
3720.96316 0.99826
3719.53477 0.99831
3718.10637 0.99835
3716.67798 0.99838
3715.24959 0.99839
3713.82120 0.99839
3712.39280 0.99837
3710.96441 0.99835
3709.53602 0.99833
3708.10763 0.99831
3706.67923 0.99829
3705.25084 0.99826
3703.82245 0.99825
3702.39405 0.99824
3700.96566 0.99825
3699.53727 0.99829
3698.10888 0.99835
3696.68048 0.99843
3695.25209 0.99853
3693.82370 0.99864
3692.39531 0.99875
3690.96691 0.99885
3689.53852 0.99893
3688.11013 0.99898
3686.68173 0.99901
3685.25334 0.99903
3683.82495 0.99905
3682.39656 0.99908
3680.96816 0.99911
3679.53977 0.99915
3678.11138 0.99921
3676.68298 0.99928
3675.25459 0.99936
3673.82620 0.99944
3672.39781 0.99951
3670.96941 0.99957
3669.54102 0.99964
3668.11263 0.99971
3666.68424 0.99978
3665.25584 0.99984
3663.82745 0.99991
3662.39906 0.99997
3660.97066 1.00002
3659.54227 1.00005
3658.11388 1.00007
3656.68549 1.00005
3655.25709 1.00002
3653.82870 0.99997
3652.40031 0.99991
3650.97191 0.99985
3649.54352 0.99981
3648.11513 0.99978
3646.68674 0.99977
3645.25834 0.99978
3643.82995 0.99980
3642.40156 0.99983
3640.97317 0.99986
3639.54477 0.99990
3638.11638 0.99993
3636.68799 0.99996
3635.25959 0.99999
3633.83120 1.00000
3632.40281 1.00000
3630.97442 0.99999
3629.54602 0.99997
3628.11763 0.99994
3626.68924 0.99990
3625.26084 0.99986
3623.83245 0.99983
3622.40406 0.99981
3620.97567 0.99980
3619.54727 0.99980
3618.11888 0.99980
3616.69049 0.99981
3615.26210 0.99981
3613.83370 0.99981
3612.40531 0.99981
3610.97692 0.99980
3609.54852 0.99979
3608.12013 0.99977
3606.69174 0.99975
3605.26335 0.99973
3603.83495 0.99972
3602.40656 0.99970
3600.97817 0.99969
3599.54978 0.99967
3598.12138 0.99966
3596.69299 0.99964
3595.26460 0.99963
3593.83620 0.99960
3592.40781 0.99958
3590.97942 0.99956
3589.55103 0.99956
3588.12263 0.99956
3586.69424 0.99956
3585.26585 0.99957
3583.83745 0.99957
3582.40906 0.99956
3580.98067 0.99955
3579.55228 0.99954
3578.12388 0.99952
3576.69549 0.99951
3575.26710 0.99950
3573.83871 0.99950
3572.41031 0.99951
3570.98192 0.99952
3569.55353 0.99951
3568.12513 0.99948
3566.69674 0.99944
3565.26835 0.99938
3563.83996 0.99931
3562.41156 0.99924
3560.98317 0.99918
3559.55478 0.99915
3558.12638 0.99913
3556.69799 0.99913
3555.26960 0.99914
3553.84121 0.99915
3552.41281 0.99915
3550.98442 0.99913
3549.55603 0.99910
3548.12764 0.99905
3546.69924 0.99901
3545.27085 0.99896
3543.84246 0.99892
3542.41406 0.99890
3540.98567 0.99889
3539.55728 0.99889
3538.12889 0.99889
3536.70049 0.99890
3535.27210 0.99890
3533.84371 0.99890
3532.41532 0.99888
3530.98692 0.99886
3529.55853 0.99882
3528.13014 0.99877
3526.70174 0.99872
3525.27335 0.99866
3523.84496 0.99860
3522.41657 0.99856
3520.98817 0.99852
3519.55978 0.99851
3518.13139 0.99851
3516.70299 0.99852
3515.27460 0.99855
3513.84621 0.99858
3512.41782 0.99861
3510.98942 0.99863
3509.56103 0.99864
3508.13264 0.99864
3506.70425 0.99862
3505.27585 0.99858
3503.84746 0.99854
3502.41907 0.99850
3500.99067 0.99847
3499.56228 0.99845
3498.13389 0.99845
3496.70550 0.99847
3495.27710 0.99850
3493.84871 0.99854
3492.42032 0.99860
3490.99192 0.99866
3489.56353 0.99871
3488.13514 0.99876
3486.70675 0.99880
3485.27835 0.99883
3483.84996 0.99885
3482.42157 0.99886
3480.99318 0.99886
3479.56478 0.99885
3478.13639 0.99883
3476.70800 0.99881
3475.27960 0.99879
3473.85121 0.99879
3472.42282 0.99880
3470.99443 0.99883
3469.56603 0.99889
3468.13764 0.99896
3466.70925 0.99903
3465.28085 0.99910
3463.85246 0.99916
3462.42407 0.99919
3460.99568 0.99920
3459.56728 0.99919
3458.13889 0.99915
3456.71050 0.99910
3455.28211 0.99904
3453.85371 0.99899
3452.42532 0.99896
3450.99693 0.99894
3449.56853 0.99894
3448.14014 0.99897
3446.71175 0.99901
3445.28336 0.99906
3443.85496 0.99912
3442.42657 0.99917
3440.99818 0.99921
3439.56979 0.99925
3438.14139 0.99927
3436.71300 0.99929
3435.28461 0.99931
3433.85621 0.99932
3432.42782 0.99934
3430.99943 0.99937
3429.57104 0.99941
3428.14264 0.99946
3426.71425 0.99951
3425.28586 0.99956
3423.85746 0.99961
3422.42907 0.99965
3421.00068 0.99968
3419.57229 0.99971
3418.14389 0.99972
3416.71550 0.99973
3415.28711 0.99974
3413.85872 0.99975
3412.43032 0.99978
3411.00193 0.99982
3409.57354 0.99988
3408.14514 0.99993
3406.71675 0.99998
3405.28836 1.00000
3403.85997 1.00000
3402.43157 0.99997
3401.00318 0.99992
3399.57479 0.99986
3398.14639 0.99979
3396.71800 0.99975
3395.28961 0.99972
3393.86122 0.99971
3392.43282 0.99972
3391.00443 0.99973
3389.57604 0.99973
3388.14765 0.99973
3386.71925 0.99971
3385.29086 0.99969
3383.86247 0.99968
3382.43407 0.99969
3381.00568 0.99971
3379.57729 0.99976
3378.14890 0.99981
3376.72050 0.99987
3375.29211 0.99993
3373.86372 0.99997
3372.43533 1.00000
3371.00693 1.00001
3369.57854 1.00001
3368.15015 1.00000
3366.72175 1.00000
3365.29336 1.00000
3363.86497 0.99998
3362.43658 0.99995
3361.00818 0.99991
3359.57979 0.99985
3358.15140 0.99979
3356.72300 0.99973
3355.29461 0.99968
3353.86622 0.99964
3352.43783 0.99962
3351.00943 0.99961
3349.58104 0.99961
3348.15265 0.99963
3346.72426 0.99964
3345.29586 0.99964
3343.86747 0.99963
3342.43908 0.99963
3341.01068 0.99962
3339.58229 0.99963
3338.15390 0.99964
3336.72551 0.99966
3335.29711 0.99968
3333.86872 0.99970
3332.44033 0.99970
3331.01193 0.99969
3329.58354 0.99966
3328.15515 0.99961
3326.72676 0.99955
3325.29836 0.99948
3323.86997 0.99941
3322.44158 0.99934
3321.01319 0.99927
3319.58479 0.99921
3318.15640 0.99916
3316.72801 0.99912
3315.29961 0.99908
3313.87122 0.99906
3312.44283 0.99904
3311.01444 0.99903
3309.58604 0.99901
3308.15765 0.99899
3306.72926 0.99895
3305.30086 0.99890
3303.87247 0.99885
3302.44408 0.99880
3301.01569 0.99877
3299.58729 0.99877
3298.15890 0.99879
3296.73051 0.99883
3295.30212 0.99889
3293.87372 0.99894
3292.44533 0.99898
3291.01694 0.99899
3289.58854 0.99897
3288.16015 0.99893
3286.73176 0.99888
3285.30337 0.99883
3283.87497 0.99880
3282.44658 0.99879
3281.01819 0.99879
3279.58980 0.99881
3278.16140 0.99883
3276.73301 0.99884
3275.30462 0.99884
3273.87622 0.99883
3272.44783 0.99880
3271.01944 0.99877
3269.59105 0.99873
3268.16265 0.99869
3266.73426 0.99867
3265.30587 0.99867
3263.87747 0.99869
3262.44908 0.99874
3261.02069 0.99881
3259.59230 0.99890
3258.16390 0.99899
3256.73551 0.99908
3255.30712 0.99916
3253.87873 0.99922
3252.45033 0.99926
3251.02194 0.99929
3249.59355 0.99929
3248.16515 0.99928
3246.73676 0.99927
3245.30837 0.99927
3243.87998 0.99927
3242.45158 0.99927
3241.02319 0.99927
3239.59480 0.99927
3238.16640 0.99928
3236.73801 0.99928
3235.30962 0.99929
3233.88123 0.99931
3232.45283 0.99933
3231.02444 0.99936
3229.59605 0.99940
3228.16766 0.99945
3226.73926 0.99949
3225.31087 0.99953
3223.88248 0.99955
3222.45408 0.99957
3221.02569 0.99957
3219.59730 0.99957
3218.16891 0.99957
3216.74051 0.99957
3215.31212 0.99957
3213.88373 0.99958
3212.45534 0.99959
3211.02694 0.99960
3209.59855 0.99961
3208.17016 0.99959
3206.74176 0.99955
3205.31337 0.99948
3203.88498 0.99937
3202.45659 0.99924
3201.02819 0.99910
3199.59980 0.99896
3198.17141 0.99882
3196.74301 0.99871
3195.31462 0.99863
3193.88623 0.99859
3192.45784 0.99858
3191.02944 0.99861
3189.60105 0.99865
3188.17266 0.99870
3186.74427 0.99874
3185.31587 0.99876
3183.88748 0.99877
3182.45909 0.99874
3181.03069 0.99870
3179.60230 0.99864
3178.17391 0.99857
3176.74552 0.99850
3175.31712 0.99844
3173.88873 0.99837
3172.46034 0.99831
3171.03194 0.99826
3169.60355 0.99822
3168.17516 0.99819
3166.74677 0.99817
3165.31837 0.99815
3163.88998 0.99815
3162.46159 0.99814
3161.03320 0.99814
3159.60480 0.99812
3158.17641 0.99808
3156.74802 0.99802
3155.31962 0.99794
3153.89123 0.99786
3152.46284 0.99777
3151.03445 0.99769
3149.60605 0.99762
3148.17766 0.99757
3146.74927 0.99755
3145.32087 0.99754
3143.89248 0.99754
3142.46409 0.99754
3141.03570 0.99754
3139.60730 0.99752
3138.17891 0.99750
3136.75052 0.99748
3135.32213 0.99744
3133.89373 0.99740
3132.46534 0.99735
3131.03695 0.99731
3129.60855 0.99726
3128.18016 0.99723
3126.75177 0.99719
3125.32338 0.99716
3123.89498 0.99713
3122.46659 0.99712
3121.03820 0.99711
3119.60981 0.99711
3118.18141 0.99711
3116.75302 0.99712
3115.32463 0.99712
3113.89623 0.99713
3112.46784 0.99713
3111.03945 0.99712
3109.61106 0.99711
3108.18266 0.99710
3106.75427 0.99710
3105.32588 0.99709
3103.89748 0.99709
3102.46909 0.99710
3101.04070 0.99710
3099.61231 0.99710
3098.18391 0.99709
3096.75552 0.99708
3095.32713 0.99706
3093.89874 0.99705
3092.47034 0.99703
3091.04195 0.99702
3089.61356 0.99701
3088.18516 0.99701
3086.75677 0.99702
3085.32838 0.99703
3083.89999 0.99703
3082.47159 0.99704
3081.04320 0.99704
3079.61481 0.99703
3078.18641 0.99702
3076.75802 0.99700
3075.32963 0.99698
3073.90124 0.99696
3072.47284 0.99693
3071.04445 0.99692
3069.61606 0.99690
3068.18767 0.99690
3066.75927 0.99691
3065.33088 0.99694
3063.90249 0.99697
3062.47409 0.99702
3061.04570 0.99706
3059.61731 0.99710
3058.18892 0.99713
3056.76052 0.99716
3055.33213 0.99717
3053.90374 0.99718
3052.47535 0.99718
3051.04695 0.99719
3049.61856 0.99719
3048.19017 0.99721
3046.76177 0.99723
3045.33338 0.99725
3043.90499 0.99727
3042.47660 0.99729
3041.04820 0.99731
3039.61981 0.99732
3038.19142 0.99734
3036.76302 0.99735
3035.33463 0.99736
3033.90624 0.99736
3032.47785 0.99737
3031.04945 0.99737
3029.62106 0.99738
3028.19267 0.99739
3026.76428 0.99740
3025.33588 0.99741
3023.90749 0.99743
3022.47910 0.99745
3021.05070 0.99747
3019.62231 0.99748
3018.19392 0.99749
3016.76553 0.99750
3015.33713 0.99751
3013.90874 0.99752
3012.48035 0.99753
3011.05195 0.99755
3009.62356 0.99756
3008.19517 0.99756
3006.76678 0.99756
3005.33838 0.99754
3003.90999 0.99752
3002.48160 0.99749
3001.05321 0.99746
2999.62481 0.99742
2998.19642 0.99738
2996.76803 0.99733
2995.33963 0.99728
2993.91124 0.99722
2992.48285 0.99715
2991.05446 0.99706
2989.62606 0.99696
2988.19767 0.99685
2986.76928 0.99672
2985.34088 0.99658
2983.91249 0.99643
2982.48410 0.99628
2981.05571 0.99612
2979.62731 0.99596
2978.19892 0.99580
2976.77053 0.99564
2975.34214 0.99547
2973.91374 0.99529
2972.48535 0.99510
2971.05696 0.99490
2969.62856 0.99469
2968.20017 0.99447
2966.77178 0.99425
2965.34339 0.99403
2963.91499 0.99382
2962.48660 0.99362
2961.05821 0.99343
2959.62982 0.99326
2958.20142 0.99308
2956.77303 0.99291
2955.34464 0.99273
2953.91624 0.99255
2952.48785 0.99238
2951.05946 0.99221
2949.63107 0.99206
2948.20267 0.99193
2946.77428 0.99182
2945.34589 0.99172
2943.91749 0.99165
2942.48910 0.99159
2941.06071 0.99155
2939.63232 0.99152
2938.20392 0.99151
2936.77553 0.99152
2935.34714 0.99153
2933.91875 0.99157
2932.49035 0.99162
2931.06196 0.99168
2929.63357 0.99175
2928.20517 0.99183
2926.77678 0.99190
2925.34839 0.99199
2923.92000 0.99208
2922.49160 0.99218
2921.06321 0.99229
2919.63482 0.99240
2918.20642 0.99253
2916.77803 0.99266
2915.34964 0.99279
2913.92125 0.99291
2912.49285 0.99303
2911.06446 0.99313
2909.63607 0.99321
2908.20768 0.99327
2906.77928 0.99331
2905.35089 0.99334
2903.92250 0.99335
2902.49410 0.99335
2901.06571 0.99335
2899.63732 0.99334
2898.20893 0.99333
2896.78053 0.99333
2895.35214 0.99334
2893.92375 0.99336
2892.49536 0.99340
2891.06696 0.99346
2889.63857 0.99353
2888.21018 0.99362
2886.78178 0.99371
2885.35339 0.99381
2883.92500 0.99391
2882.49661 0.99401
2881.06821 0.99410
2879.63982 0.99418
2878.21143 0.99425
2876.78303 0.99431
2875.35464 0.99436
2873.92625 0.99442
2872.49786 0.99448
2871.06946 0.99454
2869.64107 0.99461
2868.21268 0.99468
2866.78429 0.99475
2865.35589 0.99480
2863.92750 0.99485
2862.49911 0.99487
2861.07071 0.99488
2859.64232 0.99487
2858.21393 0.99486
2856.78554 0.99484
2855.35714 0.99484
2853.92875 0.99485
2852.50036 0.99489
2851.07196 0.99496
2849.64357 0.99506
2848.21518 0.99518
2846.78679 0.99533
2845.35839 0.99548
2843.93000 0.99564
2842.50161 0.99578
2841.07322 0.99590
2839.64482 0.99600
2838.21643 0.99609
2836.78804 0.99617
2835.35964 0.99624
2833.93125 0.99631
2832.50286 0.99639
2831.07447 0.99647
2829.64607 0.99655
2828.21768 0.99664
2826.78929 0.99671
2825.36089 0.99678
2823.93250 0.99685
2822.50411 0.99690
2821.07572 0.99696
2819.64732 0.99701
2818.21893 0.99707
2816.79054 0.99712
2815.36215 0.99719
2813.93375 0.99726
2812.50536 0.99733
2811.07697 0.99740
2809.64857 0.99747
2808.22018 0.99753
2806.79179 0.99758
2805.36340 0.99762
2803.93500 0.99766
2802.50661 0.99768
2801.07822 0.99771
2799.64983 0.99773
2798.22143 0.99775
2796.79304 0.99778
2795.36465 0.99781
2793.93625 0.99784
2792.50786 0.99788
2791.07947 0.99791
2789.65108 0.99794
2788.22268 0.99797
2786.79429 0.99800
2785.36590 0.99803
2783.93750 0.99807
2782.50911 0.99811
2781.08072 0.99815
2779.65233 0.99819
2778.22393 0.99823
2776.79554 0.99827
2775.36715 0.99830
2773.93876 0.99832
2772.51036 0.99834
2771.08197 0.99835
2769.65358 0.99836
2768.22518 0.99837
2766.79679 0.99837
2765.36840 0.99838
2763.94001 0.99839
2762.51161 0.99839
2761.08322 0.99840
2759.65483 0.99841
2758.22643 0.99842
2756.79804 0.99843
2755.36965 0.99843
2753.94126 0.99844
2752.51286 0.99845
2751.08447 0.99846
2749.65608 0.99847
2748.22769 0.99848
2746.79929 0.99849
2745.37090 0.99851
2743.94251 0.99853
2742.51411 0.99856
2741.08572 0.99858
2739.65733 0.99861
2738.22894 0.99864
2736.80054 0.99868
2735.37215 0.99871
2733.94376 0.99873
2732.51537 0.99875
2731.08697 0.99876
2729.65858 0.99877
2728.23019 0.99876
2726.80179 0.99876
2725.37340 0.99875
2723.94501 0.99874
2722.51662 0.99874
2721.08822 0.99874
2719.65983 0.99875
2718.23144 0.99877
2716.80304 0.99878
2715.37465 0.99880
2713.94626 0.99882
2712.51787 0.99883
2711.08947 0.99883
2709.66108 0.99883
2708.23269 0.99882
2706.80430 0.99881
2705.37590 0.99880
2703.94751 0.99880
2702.51912 0.99880
2701.09072 0.99882
2699.66233 0.99883
2698.23394 0.99885
2696.80555 0.99887
2695.37715 0.99889
2693.94876 0.99890
2692.52037 0.99892
2691.09197 0.99893
2689.66358 0.99895
2688.23519 0.99897
2686.80680 0.99900
2685.37840 0.99904
2683.95001 0.99906
2682.52162 0.99908
2681.09323 0.99909
2679.66483 0.99909
2678.23644 0.99908
2676.80805 0.99906
2675.37965 0.99904
2673.95126 0.99902
2672.52287 0.99900
2671.09448 0.99898
2669.66608 0.99897
2668.23769 0.99897
2666.80930 0.99897
2665.38090 0.99899
2663.95251 0.99901
2662.52412 0.99904
2661.09573 0.99907
2659.66733 0.99911
2658.23894 0.99915
2656.81055 0.99917
2655.38216 0.99919
2653.95376 0.99920
2652.52537 0.99921
2651.09698 0.99920
2649.66858 0.99920
2648.24019 0.99920
2646.81180 0.99921
2645.38341 0.99922
2643.95501 0.99924
2642.52662 0.99927
2641.09823 0.99930
2639.66984 0.99934
2638.24144 0.99938
2636.81305 0.99942
2635.38466 0.99945
2633.95626 0.99948
2632.52787 0.99950
2631.09948 0.99953
2629.67109 0.99956
2628.24269 0.99958
2626.81430 0.99961
2625.38591 0.99964
2623.95751 0.99967
2622.52912 0.99970
2621.10073 0.99973
2619.67234 0.99975
2618.24394 0.99976
2616.81555 0.99977
2615.38716 0.99977
2613.95877 0.99978
2612.53037 0.99978
2611.10198 0.99978
2609.67359 0.99978
2608.24519 0.99979
2606.81680 0.99980
2605.38841 0.99981
2603.96002 0.99982
2602.53162 0.99983
2601.10323 0.99984
2599.67484 0.99985
2598.24644 0.99985
2596.81805 0.99985
2595.38966 0.99984
2593.96127 0.99983
2592.53287 0.99981
2591.10448 0.99978
2589.67609 0.99975
2588.24770 0.99972
2586.81930 0.99970
2585.39091 0.99970
2583.96252 0.99971
2582.53412 0.99974
2581.10573 0.99979
2579.67734 0.99984
2578.24895 0.99989
2576.82055 0.99994
2575.39216 0.99998
2573.96377 1.00000
2572.53537 1.00000
2571.10698 0.99999
2569.67859 0.99998
2568.25020 0.99998
2566.82180 0.99997
2565.39341 0.99996
2563.96502 0.99995
2562.53663 0.99994
2561.10823 0.99992
2559.67984 0.99990
2558.25145 0.99986
2556.82305 0.99981
2555.39466 0.99976
2553.96627 0.99971
2552.53788 0.99968
2551.10948 0.99966
2549.68109 0.99966
2548.25270 0.99969
2546.82431 0.99974
2545.39591 0.99981
2543.96752 0.99987
2542.53913 0.99992
2541.11073 0.99995
2539.68234 0.99996
2538.25395 0.99994
2536.82556 0.99991
2535.39716 0.99986
2533.96877 0.99982
2532.54038 0.99979
2531.11198 0.99977
2529.68359 0.99977
2528.25520 0.99979
2526.82681 0.99980
2525.39841 0.99980
2523.97002 0.99979
2522.54163 0.99978
2521.11324 0.99975
2519.68484 0.99972
2518.25645 0.99970
2516.82806 0.99968
2515.39966 0.99968
2513.97127 0.99969
2512.54288 0.99971
2511.11449 0.99974
2509.68609 0.99976
2508.25770 0.99978
2506.82931 0.99979
2505.40091 0.99980
2503.97252 0.99979
2502.54413 0.99978
2501.11574 0.99976
2499.68734 0.99974
2498.25895 0.99972
2496.83056 0.99970
2495.40217 0.99968
2493.97377 0.99966
2492.54538 0.99964
2491.11699 0.99964
2489.68859 0.99964
2488.26020 0.99965
2486.83181 0.99967
2485.40342 0.99970
2483.97502 0.99974
2482.54663 0.99978
2481.11824 0.99982
2479.68985 0.99985
2478.26145 0.99989
2476.83306 0.99992
2475.40467 0.99995
2473.97627 0.99997
2472.54788 0.99999
2471.11949 1.00000
2469.69110 1.00000
2468.26270 1.00000
2466.83431 0.99999
2465.40592 0.99997
2463.97752 0.99995
2462.54913 0.99993
2461.12074 0.99991
2459.69235 0.99989
2458.26395 0.99987
2456.83556 0.99985
2455.40717 0.99983
2453.97878 0.99982
2452.55038 0.99981
2451.12199 0.99980
2449.69360 0.99980
2448.26520 0.99981
2446.83681 0.99983
2445.40842 0.99985
2443.98003 0.99988
2442.55163 0.99990
2441.12324 0.99991
2439.69485 0.99992
2438.26645 0.99993
2436.83806 0.99993
2435.40967 0.99994
2433.98128 0.99995
2432.55288 0.99995
2431.12449 0.99996
2429.69610 0.99997
2428.26771 0.99998
2426.83931 0.99998
2425.41092 0.99998
2423.98253 0.99997
2422.55413 0.99995
2421.12574 0.99993
2419.69735 0.99991
2418.26896 0.99989
2416.84056 0.99987
2415.41217 0.99985
2413.98378 0.99983
2412.55538 0.99981
2411.12699 0.99981
2409.69860 0.99980
2408.27021 0.99980
2406.84181 0.99980
2405.41342 0.99980
2403.98503 0.99980
2402.55664 0.99981
2401.12824 0.99981
2399.69985 0.99981
2398.27146 0.99981
2396.84306 0.99980
2395.41467 0.99980
2393.98628 0.99980
2392.55789 0.99980
2391.12949 0.99980
2389.70110 0.99980
2388.27271 0.99980
2386.84432 0.99980
2385.41592 0.99979
2383.98753 0.99979
2382.55914 0.99979
2381.13074 0.99979
2379.70235 0.99979
2378.27396 0.99979
2376.84557 0.99978
2375.41717 0.99978
2373.98878 0.99978
2372.56039 0.99978
2371.13199 0.99978
2369.70360 0.99977
2368.27521 0.99977
2366.84682 0.99977
2365.41842 0.99977
2363.99003 0.99976
2362.56164 0.99976
2361.13325 0.99976
2359.70485 0.99976
2358.27646 0.99976
2356.84807 0.99975
2355.41967 0.99975
2353.99128 0.99975
2352.56289 0.99974
2351.13450 0.99974
2349.70610 0.99974
2348.27771 0.99974
2346.84932 0.99973
2345.42092 0.99973
2343.99253 0.99973
2342.56414 0.99972
2341.13575 0.99972
2339.70735 0.99972
2338.27896 0.99971
2336.85057 0.99971
2335.42218 0.99971
2333.99378 0.99970
2332.56539 0.99970
2331.13700 0.99970
2329.70860 0.99969
2328.28021 0.99969
2326.85182 0.99968
2325.42343 0.99968
2323.99503 0.99968
2322.56664 0.99967
2321.13825 0.99967
2319.70986 0.99966
2318.28146 0.99966
2316.85307 0.99966
2315.42468 0.99965
2313.99628 0.99965
2312.56789 0.99964
2311.13950 0.99964
2309.71111 0.99963
2308.28271 0.99963
2306.85432 0.99962
2305.42593 0.99962
2303.99753 0.99962
2302.56914 0.99961
2301.14075 0.99961
2299.71236 0.99960
2298.28396 0.99960
2296.85557 0.99959
2295.42718 0.99959
2293.99879 0.99958
2292.57039 0.99958
2291.14200 0.99957
2289.71361 0.99956
2288.28521 0.99956
2286.85682 0.99955
2285.42843 0.99955
2284.00004 0.99954
2282.57164 0.99954
2281.14325 0.99953
2279.71486 0.99953
2278.28646 0.99952
2276.85807 0.99951
2275.42968 0.99951
2274.00129 0.99950
2272.57289 0.99950
2271.14450 0.99949
2269.71611 0.99948
2268.28772 0.99948
2266.85932 0.99947
2265.43093 0.99947
2264.00254 0.99946
2262.57414 0.99945
2261.14575 0.99945
2259.71736 0.99944
2258.28897 0.99943
2256.86057 0.99943
2255.43218 0.99942
2254.00379 0.99941
2252.57539 0.99941
2251.14700 0.99940
2249.71861 0.99939
2248.29022 0.99938
2246.86182 0.99937
2245.43343 0.99935
2244.00504 0.99935
2242.57665 0.99936
2241.14825 0.99937
2239.71986 0.99939
2238.29147 0.99941
2236.86307 0.99943
2235.43468 0.99944
2234.00629 0.99944
2232.57790 0.99940
2231.14950 0.99935
2229.72111 0.99929
2228.29272 0.99923
2226.86433 0.99919
2225.43593 0.99918
2224.00754 0.99918
2222.57915 0.99920
2221.15075 0.99923
2219.72236 0.99926
2218.29397 0.99928
2216.86558 0.99930
2215.43718 0.99932
2214.00879 0.99933
2212.58040 0.99934
2211.15200 0.99938
2209.72361 0.99942
2208.29522 0.99948
2206.86683 0.99953
2205.43843 0.99956
2204.01004 0.99957
2202.58165 0.99958
2201.15326 0.99957
2199.72486 0.99957
2198.29647 0.99958
2196.86808 0.99961
2195.43968 0.99965
2194.01129 0.99969
2192.58290 0.99973
2191.15451 0.99974
2189.72611 0.99969
2188.29772 0.99960
2186.86933 0.99945
2185.44093 0.99927
2184.01254 0.99907
2182.58415 0.99891
2181.15576 0.99880
2179.72736 0.99879
2178.29897 0.99887
2176.87058 0.99902
2175.44219 0.99923
2174.01379 0.99946
2172.58540 0.99968
2171.15701 0.99986
2169.72861 0.99997
2168.30022 1.00000
2166.87183 0.99998
2165.44344 0.99993
2164.01504 0.99987
2162.58665 0.99982
2161.15826 0.99981
2159.72987 0.99981
2158.30147 0.99982
2156.87308 0.99983
2155.44469 0.99982
2154.01629 0.99980
2152.58790 0.99975
2151.15951 0.99967
2149.73112 0.99957
2148.30272 0.99946
2146.87433 0.99936
2145.44594 0.99928
2144.01754 0.99922
2142.58915 0.99917
2141.16076 0.99912
2139.73237 0.99905
2138.30397 0.99897
2136.87558 0.99891
2135.44719 0.99886
2134.01880 0.99885
2132.59040 0.99887
2131.16201 0.99892
2129.73362 0.99900
2128.30522 0.99911
2126.87683 0.99922
2125.44844 0.99931
2124.02005 0.99936
2122.59165 0.99935
2121.16326 0.99931
2119.73487 0.99924
2118.30647 0.99918
2116.87808 0.99913
2115.44969 0.99912
2114.02130 0.99915
2112.59290 0.99923
2111.16451 0.99934
2109.73612 0.99946
2108.30773 0.99958
2106.87933 0.99967
2105.45094 0.99972
2104.02255 0.99973
2102.59415 0.99970
2101.16576 0.99965
2099.73737 0.99960
2098.30898 0.99955
2096.88058 0.99952
2095.45219 0.99951
2094.02380 0.99951
2092.59540 0.99951
2091.16701 0.99950
2089.73862 0.99947
2088.31023 0.99941
2086.88183 0.99933
2085.45344 0.99925
2084.02505 0.99919
2082.59666 0.99915
2081.16826 0.99915
2079.73987 0.99919
2078.31148 0.99927
2076.88308 0.99936
2075.45469 0.99946
2074.02630 0.99955
2072.59791 0.99962
2071.16951 0.99965
2069.74112 0.99965
2068.31273 0.99964
2066.88434 0.99961
2065.45594 0.99958
2064.02755 0.99955
2062.59916 0.99952
2061.17076 0.99951
2059.74237 0.99951
2058.31398 0.99955
2056.88559 0.99960
2055.45719 0.99967
2054.02880 0.99973
2052.60041 0.99977
2051.17201 0.99979
2049.74362 0.99978
2048.31523 0.99976
2046.88684 0.99972
2045.45844 0.99965
2044.03005 0.99957
2042.60166 0.99949
2041.17327 0.99942
2039.74487 0.99935
2038.31648 0.99927
2036.88809 0.99917
2035.45969 0.99906
2034.03130 0.99897
2032.60291 0.99891
2031.17452 0.99890
2029.74612 0.99894
2028.31773 0.99900
2026.88934 0.99909
2025.46094 0.99919
2024.03255 0.99929
2022.60416 0.99938
2021.17577 0.99945
2019.74737 0.99950
2018.31898 0.99956
2016.89059 0.99963
2015.46220 0.99972
2014.03380 0.99983
2012.60541 0.99992
2011.17702 0.99998
2009.74862 1.00000
2008.32023 0.99998
2006.89184 0.99992
2005.46345 0.99981
2004.03505 0.99968
2002.60666 0.99954
2001.17827 0.99941
1999.74988 0.99929
1998.32148 0.99918
1996.89309 0.99908
1995.46470 0.99900
1994.03630 0.99894
1992.60791 0.99892
1991.17952 0.99892
1989.75113 0.99894
1988.32273 0.99896
1986.89434 0.99898
1985.46595 0.99901
1984.03755 0.99902
1982.60916 0.99902
1981.18077 0.99900
1979.75238 0.99897
1978.32398 0.99893
1976.89559 0.99890
1975.46720 0.99886
1974.03881 0.99880
1972.61041 0.99872
1971.18202 0.99862
1969.75363 0.99854
1968.32523 0.99848
1966.89684 0.99845
1965.46845 0.99845
1964.04006 0.99849
1962.61166 0.99853
1961.18327 0.99858
1959.75488 0.99862
1958.32648 0.99862
1956.89809 0.99859
1955.46970 0.99854
1954.04131 0.99847
1952.61291 0.99841
1951.18452 0.99838
1949.75613 0.99839
1948.32774 0.99844
1946.89934 0.99852
1945.47095 0.99862
1944.04256 0.99872
1942.61416 0.99881
1941.18577 0.99887
1939.75738 0.99890
1938.32899 0.99890
1936.90059 0.99885
1935.47220 0.99879
1934.04381 0.99872
1932.61541 0.99865
1931.18702 0.99860
1929.75863 0.99857
1928.33024 0.99855
1926.90184 0.99855
1925.47345 0.99856
1924.04506 0.99856
1922.61667 0.99855
1921.18827 0.99852
1919.75988 0.99847
1918.33149 0.99841
1916.90309 0.99834
1915.47470 0.99827
1914.04631 0.99821
1912.61792 0.99815
1911.18952 0.99811
1909.76113 0.99808
1908.33274 0.99807
1906.90435 0.99807
1905.47595 0.99808
1904.04756 0.99811
1902.61917 0.99815
1901.19077 0.99821
1899.76238 0.99826
1898.33399 0.99829
1896.90560 0.99832
1895.47720 0.99833
1894.04881 0.99832
1892.62042 0.99830
1891.19202 0.99826
1889.76363 0.99822
1888.33524 0.99820
1886.90685 0.99819
1885.47845 0.99821
1884.05006 0.99824
1882.62167 0.99828
1881.19328 0.99833
1879.76488 0.99838
1878.33649 0.99842
1876.90810 0.99843
1875.47970 0.99842
1874.05131 0.99839
1872.62292 0.99835
1871.19453 0.99830
1869.76613 0.99825
1868.33774 0.99820
1866.90935 0.99816
1865.48095 0.99813
1864.05256 0.99811
1862.62417 0.99809
1861.19578 0.99807
1859.76738 0.99806
1858.33899 0.99804
1856.91060 0.99804
1855.48221 0.99804
1854.05381 0.99805
1852.62542 0.99808
1851.19703 0.99811
1849.76863 0.99814
1848.34024 0.99817
1846.91185 0.99818
1845.48346 0.99819
1844.05506 0.99819
1842.62667 0.99817
1841.19828 0.99815
1839.76989 0.99812
1838.34149 0.99808
1836.91310 0.99805
1835.48471 0.99803
1834.05631 0.99800
1832.62792 0.99798
1831.19953 0.99795
1829.77114 0.99793
1828.34274 0.99792
1826.91435 0.99790
1825.48596 0.99789
1824.05756 0.99788
1822.62917 0.99788
1821.20078 0.99787
1819.77239 0.99787
1818.34399 0.99787
1816.91560 0.99787
1815.48721 0.99787
1814.05882 0.99787
1812.63042 0.99787
1811.20203 0.99787
1809.77364 0.99787
1808.34524 0.99786
1806.91685 0.99785
1805.48846 0.99784
1804.06007 0.99782
1802.63167 0.99780
1801.20328 0.99779
1799.77489 0.99779
1798.34649 0.99778
1796.91810 0.99779
1795.48971 0.99779
1794.06132 0.99780
1792.63292 0.99781
1791.20453 0.99783
1789.77614 0.99784
1788.34775 0.99785
1786.91935 0.99787
1785.49096 0.99787
1784.06257 0.99787
1782.63417 0.99787
1781.20578 0.99785
1779.77739 0.99782
1778.34900 0.99779
1776.92060 0.99775
1775.49221 0.99772
1774.06382 0.99769
1772.63542 0.99768
1771.20703 0.99768
1769.77864 0.99769
1768.35025 0.99770
1766.92185 0.99771
1765.49346 0.99772
1764.06507 0.99772
1762.63668 0.99772
1761.20828 0.99772
1759.77989 0.99771
1758.35150 0.99770
1756.92310 0.99768
1755.49471 0.99766
1754.06632 0.99763
1752.63793 0.99760
1751.20953 0.99757
1749.78114 0.99753
1748.35275 0.99750
1746.92436 0.99748
1745.49596 0.99746
1744.06757 0.99745
1742.63918 0.99744
1741.21078 0.99743
1739.78239 0.99742
1738.35400 0.99741
1736.92561 0.99741
1735.49721 0.99740
1734.06882 0.99740
1732.64043 0.99740
1731.21203 0.99739
1729.78364 0.99738
1728.35525 0.99737
1726.92686 0.99737
1725.49846 0.99736
1724.07007 0.99737
1722.64168 0.99737
1721.21329 0.99738
1719.78489 0.99740
1718.35650 0.99742
1716.92811 0.99744
1715.49971 0.99746
1714.07132 0.99748
1712.64293 0.99751
1711.21454 0.99754
1709.78614 0.99757
1708.35775 0.99761
1706.92936 0.99765
1705.50096 0.99770
1704.07257 0.99774
1702.64418 0.99778
1701.21579 0.99781
1699.78739 0.99784
1698.35900 0.99786
1696.93061 0.99787
1695.50222 0.99788
1694.07382 0.99788
1692.64543 0.99787
1691.21704 0.99786
1689.78864 0.99784
1688.36025 0.99782
1686.93186 0.99779
1685.50347 0.99775
1684.07507 0.99771
1682.64668 0.99766
1681.21829 0.99761
1679.78990 0.99756
1678.36150 0.99751
1676.93311 0.99746
1675.50472 0.99742
1674.07632 0.99738
1672.64793 0.99735
1671.21954 0.99731
1669.79115 0.99728
1668.36275 0.99723
1666.93436 0.99718
1665.50597 0.99712
1664.07757 0.99706
1662.64918 0.99702
1661.22079 0.99699
1659.79240 0.99697
1658.36400 0.99698
1656.93561 0.99701
1655.50722 0.99705
1654.07883 0.99712
1652.65043 0.99719
1651.22204 0.99726
1649.79365 0.99734
1648.36525 0.99744
1646.93686 0.99757
1645.50847 0.99772
1644.08008 0.99789
1642.65168 0.99807
1641.22329 0.99827
1639.79490 0.99846
1638.36650 0.99864
1636.93811 0.99882
1635.50972 0.99899
1634.08133 0.99914
1632.65293 0.99928
1631.22454 0.99941
1629.79615 0.99954
1628.36776 0.99967
1626.93936 0.99977
1625.51097 0.99986
1624.08258 0.99992
1622.65418 0.99996
1621.22579 0.99999
1619.79740 0.99999
1618.36901 0.99999
1616.94061 0.99999
1615.51222 1.00000
1614.08383 1.00000
1612.65543 1.00000
1611.22704 1.00000
1609.79865 1.00000
1608.37026 0.99999
1606.94186 0.99997
1605.51347 0.99995
1604.08508 0.99993
1602.65669 0.99990
1601.22829 0.99987
1599.79990 0.99984
1598.37151 0.99981
1596.94311 0.99977
1595.51472 0.99972
1594.08633 0.99967
1592.65794 0.99961
1591.22954 0.99954
1589.80115 0.99947
1588.37276 0.99940
1586.94437 0.99932
1585.51597 0.99924
1584.08758 0.99916
1582.65919 0.99908
1581.23079 0.99901
1579.80240 0.99894
1578.37401 0.99888
1576.94562 0.99884
1575.51722 0.99881
1574.08883 0.99877
1572.66044 0.99874
1571.23204 0.99871
1569.80365 0.99867
1568.37526 0.99863
1566.94687 0.99858
1565.51847 0.99852
1564.09008 0.99846
1562.66169 0.99839
1561.23330 0.99831
1559.80490 0.99822
1558.37651 0.99813
1556.94812 0.99802
1555.51972 0.99791
1554.09133 0.99780
1552.66294 0.99770
1551.23455 0.99762
1549.80615 0.99756
1548.37776 0.99753
1546.94937 0.99751
1545.52097 0.99753
1544.09258 0.99756
1542.66419 0.99761
1541.23580 0.99767
1539.80740 0.99773
1538.37901 0.99778
1536.95062 0.99783
1535.52223 0.99786
1534.09383 0.99788
1532.66544 0.99789
1531.23705 0.99789
1529.80865 0.99789
1528.38026 0.99790
1526.95187 0.99791
1525.52348 0.99792
1524.09508 0.99794
1522.66669 0.99796
1521.23830 0.99798
1519.80991 0.99800
1518.38151 0.99802
1516.95312 0.99803
1515.52473 0.99803
1514.09633 0.99804
1512.66794 0.99805
1511.23955 0.99805
1509.81116 0.99805
1508.38276 0.99805
1506.95437 0.99806
1505.52598 0.99806
1504.09758 0.99807
1502.66919 0.99808
1501.24080 0.99808
1499.81241 0.99808
1498.38401 0.99807
1496.95562 0.99804
1495.52723 0.99800
1494.09884 0.99794
1492.67044 0.99786
1491.24205 0.99778
1489.81366 0.99769
1488.38526 0.99759
1486.95687 0.99750
1485.52848 0.99739
1484.10009 0.99727
1482.67169 0.99713
1481.24330 0.99695
1479.81491 0.99673
1478.38651 0.99647
1476.95812 0.99616
1475.52973 0.99581
1474.10134 0.99542
1472.67294 0.99501
1471.24455 0.99460
1469.81616 0.99421
1468.38777 0.99386
1466.95937 0.99356
1465.53098 0.99331
1464.10259 0.99312
1462.67419 0.99298
1461.24580 0.99289
1459.81741 0.99282
1458.38902 0.99276
1456.96062 0.99270
1455.53223 0.99263
1454.10384 0.99254
1452.67544 0.99242
1451.24705 0.99227
1449.81866 0.99210
1448.39027 0.99190
1446.96187 0.99168
1445.53348 0.99144
1444.10509 0.99119
1442.67670 0.99093
1441.24830 0.99068
1439.81991 0.99041
1438.39152 0.99015
1436.96312 0.98988
1435.53473 0.98961
1434.10634 0.98935
1432.67795 0.98910
1431.24955 0.98886
1429.82116 0.98864
1428.39277 0.98843
1426.96438 0.98824
1425.53598 0.98808
1424.10759 0.98794
1422.67920 0.98782
1421.25080 0.98773
1419.82241 0.98766
1418.39402 0.98761
1416.96563 0.98759
1415.53723 0.98758
1414.10884 0.98760
1412.68045 0.98764
1411.25205 0.98769
1409.82366 0.98776
1408.39527 0.98785
1406.96688 0.98796
1405.53848 0.98810
1404.11009 0.98825
1402.68170 0.98844
1401.25331 0.98864
1399.82491 0.98887
1398.39652 0.98911
1396.96813 0.98937
1395.53973 0.98963
1394.11134 0.98990
1392.68295 0.99016
1391.25456 0.99041
1389.82616 0.99065
1388.39777 0.99088
1386.96938 0.99110
1385.54098 0.99131
1384.11259 0.99151
1382.68420 0.99170
1381.25581 0.99188
1379.82741 0.99205
1378.39902 0.99220
1376.97063 0.99235
1375.54224 0.99248
1374.11384 0.99260
1372.68545 0.99269
1371.25706 0.99277
1369.82866 0.99283
1368.40027 0.99288
1366.97188 0.99291
1365.54349 0.99294
1364.11509 0.99295
1362.68670 0.99295
1361.25831 0.99295
1359.82992 0.99296
1358.40152 0.99296
1356.97313 0.99296
1355.54474 0.99295
1354.11634 0.99295
1352.68795 0.99294
1351.25956 0.99293
1349.83117 0.99292
1348.40277 0.99290
1346.97438 0.99288
1345.54599 0.99286
1344.11759 0.99283
1342.68920 0.99280
1341.26081 0.99276
1339.83242 0.99272
1338.40402 0.99268
1336.97563 0.99263
1335.54724 0.99258
1334.11885 0.99254
1332.69045 0.99249
1331.26206 0.99246
1329.83367 0.99243
1328.40527 0.99241
1326.97688 0.99240
1325.54849 0.99238
1324.12010 0.99237
1322.69170 0.99236
1321.26331 0.99235
1319.83492 0.99233
1318.40652 0.99232
1316.97813 0.99231
1315.54974 0.99231
1314.12135 0.99231
1312.69295 0.99232
1311.26456 0.99233
1309.83617 0.99235
1308.40778 0.99236
1306.97938 0.99238
1305.55099 0.99240
1304.12260 0.99243
1302.69420 0.99247
1301.26581 0.99251
1299.83742 0.99256
1298.40903 0.99262
1296.98063 0.99267
1295.55224 0.99273
1294.12385 0.99279
1292.69545 0.99285
1291.26706 0.99291
1289.83867 0.99297
1288.41028 0.99303
1286.98188 0.99311
1285.55349 0.99318
1284.12510 0.99325
1282.69671 0.99332
1281.26831 0.99338
1279.83992 0.99343
1278.41153 0.99347
1276.98313 0.99351
1275.55474 0.99355
1274.12635 0.99357
1272.69796 0.99359
1271.26956 0.99361
1269.84117 0.99361
1268.41278 0.99360
1266.98439 0.99357
1265.55599 0.99353
1264.12760 0.99349
1262.69921 0.99345
1261.27081 0.99342
1259.84242 0.99341
1258.41403 0.99341
1256.98564 0.99343
1255.55724 0.99346
1254.12885 0.99350
1252.70046 0.99353
1251.27206 0.99356
1249.84367 0.99359
1248.41528 0.99360
1246.98689 0.99360
1245.55849 0.99361
1244.13010 0.99361
1242.70171 0.99362
1241.27332 0.99362
1239.84492 0.99363
1238.41653 0.99363
1236.98814 0.99363
1235.55974 0.99362
1234.13135 0.99361
1232.70296 0.99359
1231.27457 0.99357
1229.84617 0.99355
1228.41778 0.99353
1226.98939 0.99351
1225.56099 0.99349
1224.13260 0.99347
1222.70421 0.99345
1221.27582 0.99345
1219.84742 0.99345
1218.41903 0.99346
1216.99064 0.99349
1215.56225 0.99353
1214.13385 0.99360
1212.70546 0.99369
1211.27707 0.99382
1209.84867 0.99397
1208.42028 0.99416
1206.99189 0.99438
1205.56350 0.99463
1204.13510 0.99490
1202.70671 0.99519
1201.27832 0.99549
1199.84993 0.99579
1198.42153 0.99610
1196.99314 0.99640
1195.56475 0.99671
1194.13635 0.99700
1192.70796 0.99730
1191.27957 0.99759
1189.85118 0.99788
1188.42278 0.99815
1186.99439 0.99840
1185.56600 0.99863
1184.13760 0.99883
1182.70921 0.99900
1181.28082 0.99914
1179.85243 0.99925
1178.42403 0.99933
1176.99564 0.99940
1175.56725 0.99945
1174.13886 0.99951
1172.71046 0.99958
1171.28207 0.99966
1169.85368 0.99974
1168.42528 0.99983
1166.99689 0.99991
1165.56850 0.99997
1164.14011 1.00000
1162.71171 1.00000
1161.28332 0.99996
1159.85493 0.99989
1158.42653 0.99979
1156.99814 0.99967
1155.56975 0.99951
1154.14136 0.99931
1152.71296 0.99908
1151.28457 0.99878
1149.85618 0.99843
1148.42779 0.99802
1146.99939 0.99755
1145.57100 0.99703
1144.14261 0.99648
1142.71421 0.99592
1141.28582 0.99536
1139.85743 0.99482
1138.42904 0.99432
1137.00064 0.99389
1135.57225 0.99352
1134.14386 0.99324
1132.71546 0.99304
1131.28707 0.99290
1129.85868 0.99282
1128.43029 0.99276
1127.00189 0.99271
1125.57350 0.99262
1124.14511 0.99248
1122.71672 0.99227
1121.28832 0.99198
1119.85993 0.99161
1118.43154 0.99116
1117.00314 0.99063
1115.57475 0.99002
1114.14636 0.98934
1112.71797 0.98859
1111.28957 0.98779
1109.86118 0.98696
1108.43279 0.98611
1107.00440 0.98525
1105.57600 0.98439
1104.14761 0.98355
1102.71922 0.98272
1101.29082 0.98191
1099.86243 0.98107
1098.43404 0.98020
1097.00565 0.97928
1095.57725 0.97830
1094.14886 0.97727
1092.72047 0.97622
1091.29207 0.97518
1089.86368 0.97420
1088.43529 0.97335
1087.00690 0.97268
1085.57850 0.97225
1084.15011 0.97208
1082.72172 0.97220
1081.29333 0.97260
1079.86493 0.97325
1078.43654 0.97409
1077.00815 0.97508
1075.57975 0.97614
1074.15136 0.97720
1072.72297 0.97821
1071.29458 0.97912
1069.86618 0.97990
1068.43779 0.98054
1067.00940 0.98101
1065.58100 0.98133
1064.15261 0.98150
1062.72422 0.98153
1061.29583 0.98144
1059.86743 0.98124
1058.43904 0.98094
1057.01065 0.98058
1055.58226 0.98018
1054.15386 0.97976
1052.72547 0.97937
1051.29708 0.97902
1049.86868 0.97875
1048.44029 0.97856
1047.01190 0.97846
1045.58351 0.97846
1044.15511 0.97853
1042.72672 0.97867
1041.29833 0.97884
1039.86994 0.97904
1038.44154 0.97924
1037.01315 0.97944
1035.58476 0.97964
1034.15636 0.97983
1032.72797 0.98003
1031.29958 0.98025
1029.87119 0.98050
1028.44279 0.98079
1027.01440 0.98113
1025.58601 0.98152
1024.15761 0.98196
1022.72922 0.98244
1021.30083 0.98294
1019.87244 0.98347
1018.44404 0.98399
1017.01565 0.98449
1015.58726 0.98497
1014.15887 0.98540
1012.73047 0.98579
1011.30208 0.98614
1009.87369 0.98645
1008.44529 0.98676
1007.01690 0.98707
1005.58851 0.98742
1004.16012 0.98782
1002.73172 0.98831
1001.30333 0.98888
999.87494 0.98953
998.44654 0.99025
997.01815 0.99103
995.58976 0.99183
994.16137 0.99262
992.73297 0.99339
991.30458 0.99410
989.87619 0.99474
988.44780 0.99530
987.01940 0.99579
985.59101 0.99621
984.16262 0.99656
982.73422 0.99687
981.30583 0.99713
979.87744 0.99736
978.44905 0.99756
977.02065 0.99774
975.59226 0.99791
974.16387 0.99807
972.73547 0.99821
971.30708 0.99834
969.87869 0.99845
968.45030 0.99853
967.02190 0.99860
965.59351 0.99863
964.16512 0.99864
962.73673 0.99862
961.30833 0.99859
959.87994 0.99854
958.45155 0.99850
957.02315 0.99846
955.59476 0.99843
954.16637 0.99842
952.73798 0.99843
951.30958 0.99845
949.88119 0.99848
948.45280 0.99852
947.02441 0.99857
945.59601 0.99860
944.16762 0.99863
942.73923 0.99865
941.31083 0.99867
939.88244 0.99867
938.45405 0.99867
937.02566 0.99867
935.59726 0.99867
934.16887 0.99868
932.74048 0.99870
931.31208 0.99874
929.88369 0.99880
928.45530 0.99887
927.02691 0.99896
925.59851 0.99906
924.17012 0.99916
922.74173 0.99926
921.31334 0.99934
919.88494 0.99942
918.45655 0.99949
917.02816 0.99956
915.59976 0.99963
914.17137 0.99970
912.74298 0.99976
911.31459 0.99982
909.88619 0.99984
908.45780 0.99983
907.02941 0.99976
905.60101 0.99962
904.17262 0.99942
902.74423 0.99915
901.31584 0.99883
899.88744 0.99847
898.45905 0.99808
897.03066 0.99768
895.60227 0.99730
894.17387 0.99696
892.74548 0.99667
891.31709 0.99644
889.88869 0.99627
888.46030 0.99616
887.03191 0.99610
885.60352 0.99610
884.17512 0.99615
882.74673 0.99623
881.31834 0.99633
879.88995 0.99646
878.46155 0.99660
877.03316 0.99676
875.60477 0.99693
874.17637 0.99711
872.74798 0.99729
871.31959 0.99745
869.89120 0.99761
868.46280 0.99775
867.03441 0.99787
865.60602 0.99799
864.17762 0.99809
862.74923 0.99819
861.32084 0.99828
859.89245 0.99836
858.46405 0.99844
857.03566 0.99851
855.60727 0.99857
854.17888 0.99862
852.75048 0.99869
851.32209 0.99876
849.89370 0.99884
848.46530 0.99893
847.03691 0.99901
845.60852 0.99910
844.18013 0.99917
842.75173 0.99923
841.32334 0.99928
839.89495 0.99933
838.46655 0.99938
837.03816 0.99943
835.60977 0.99950
834.18138 0.99957
832.75298 0.99964
831.32459 0.99969
829.89620 0.99971
828.46781 0.99970
827.03941 0.99967
825.61102 0.99961
824.18263 0.99955
822.75423 0.99948
821.32584 0.99943
819.89745 0.99939
818.46906 0.99938
817.04066 0.99938
815.61227 0.99938
814.18388 0.99938
812.75548 0.99939
811.32709 0.99939
809.89870 0.99939
808.47031 0.99938
807.04191 0.99937
805.61352 0.99936
804.18513 0.99936
802.75674 0.99936
801.32834 0.99936
799.89995 0.99935
798.47156 0.99932
797.04316 0.99928
795.61477 0.99923
794.18638 0.99918
792.75799 0.99913
791.32959 0.99909
789.90120 0.99907
788.47281 0.99908
787.04442 0.99910
785.61602 0.99914
784.18763 0.99917
782.75924 0.99919
781.33084 0.99919
779.90245 0.99917
778.47406 0.99913
777.04567 0.99907
775.61727 0.99900
774.18888 0.99892
772.76049 0.99883
771.33209 0.99871
769.90370 0.99858
768.47531 0.99845
767.04692 0.99831
765.61852 0.99818
764.19013 0.99807
762.76174 0.99796
761.33335 0.99788
759.90495 0.99782
758.47656 0.99778
757.04817 0.99772
755.61977 0.99766
754.19138 0.99756
752.76299 0.99746
751.33460 0.99734
749.90620 0.99723
748.47781 0.99714
747.04942 0.99708
745.62102 0.99705
744.19263 0.99706
742.76424 0.99711
741.33585 0.99717
739.90745 0.99724
738.47906 0.99730
737.05067 0.99734
735.62228 0.99736
734.19388 0.99735
732.76549 0.99734
731.33710 0.99731
729.90870 0.99728
728.48031 0.99725
727.05192 0.99724
725.62353 0.99727
724.19513 0.99734
722.76674 0.99745
721.33835 0.99759
719.90996 0.99775
718.48156 0.99789
717.05317 0.99801
715.62478 0.99807
714.19638 0.99808
712.76799 0.99803
711.33960 0.99794
709.91121 0.99783
708.48281 0.99773
707.05442 0.99765
705.62603 0.99760
704.19763 0.99758
702.76924 0.99759
701.34085 0.99760
699.91246 0.99761
698.48406 0.99760
697.05567 0.99758
695.62728 0.99755
694.19889 0.99752
692.77049 0.99748
691.34210 0.99743
689.91371 0.99739
688.48531 0.99735
687.05692 0.99731
685.62853 0.99729
684.20014 0.99729
682.77174 0.99730
681.34335 0.99732
679.91496 0.99736
678.48656 0.99740
677.05817 0.99746
675.62978 0.99752
674.20139 0.99758
672.77299 0.99763
671.34460 0.99767
669.91621 0.99769
668.48782 0.99771
667.05942 0.99771
665.63103 0.99770
664.20264 0.99765
662.77424 0.99758
661.34585 0.99747
659.91746 0.99734
658.48907 0.99719
657.06067 0.99703
655.63228 0.99689
654.20389 0.99676
652.77549 0.99666
651.34710 0.99662
649.91871 0.99662
648.49032 0.99667
647.06192 0.99674
645.63353 0.99681
644.20514 0.99687
642.77675 0.99693
641.34835 0.99697
639.91996 0.99701
638.49157 0.99704
637.06317 0.99708
635.63478 0.99714
634.20639 0.99721
632.77800 0.99729
631.34960 0.99738
629.92121 0.99745
628.49282 0.99751
627.06443 0.99759
625.63603 0.99768
624.20764 0.99779
622.77925 0.99791
621.35085 0.99803
619.92246 0.99813
618.49407 0.99821
617.06568 0.99824
615.63728 0.99822
614.20889 0.99814
612.78050 0.99803
611.35210 0.99792
609.92371 0.99782
608.49532 0.99774
607.06693 0.99767
605.63853 0.99764
604.21014 0.99764
602.78175 0.99766
601.35336 0.99767
599.92496 0.99766
598.49657 0.99762
597.06818 0.99757
595.63978 0.99750
594.21139 0.99743
592.78300 0.99735
591.35461 0.99728
589.92621 0.99723
588.49782 0.99719
587.06943 0.99717
585.64103 0.99712
584.21264 0.99705
582.78425 0.99696
581.35586 0.99686
579.92746 0.99679
578.49907 0.99674
577.07068 0.99673
575.64229 0.99678
574.21389 0.99688
572.78550 0.99701
571.35711 0.99714
569.92871 0.99724
568.50032 0.99728
567.07193 0.99729
565.64354 0.99728
564.21514 0.99727
562.78675 0.99729
561.35836 0.99734
559.92997 0.99744
558.50157 0.99758
557.07318 0.99773
555.64479 0.99787
554.21639 0.99797
552.78800 0.99801
551.35961 0.99799
549.93122 0.99790
548.50282 0.99777
547.07443 0.99759
545.64604 0.99740
544.21764 0.99721
542.78925 0.99703
541.36086 0.99689
539.93247 0.99678
538.50407 0.99672
537.07568 0.99671
535.64729 0.99674
534.21890 0.99680
532.79050 0.99686
531.36211 0.99692
529.93372 0.99696
528.50532 0.99701
527.07693 0.99707
525.64854 0.99715
524.22015 0.99727
522.79175 0.99746
521.36336 0.99772
519.93497 0.99804
518.50657 0.99840
517.07818 0.99878
515.64979 0.99910
514.22140 0.99932
512.79300 0.99938
511.36461 0.99926
509.93622 0.99897
508.50783 0.99857
507.07943 0.99810
505.65104 0.99766
504.22265 0.99730
502.79425 0.99710
501.36586 0.99709
499.93747 0.99722
498.50908 0.99742
497.08068 0.99756
495.65229 0.99756
494.22390 0.99734
492.79550 0.99692
491.36711 0.99636
489.93872 0.99578
488.51033 0.99530
487.08193 0.99501
485.65354 0.99497
484.22515 0.99514
482.79676 0.99544
481.36836 0.99580
479.93997 0.99611
478.51158 0.99632
477.08318 0.99644
475.65479 0.99653
474.22640 0.99664
472.79801 0.99681
471.36961 0.99701
469.94122 0.99716
468.51283 0.99721
467.08444 0.99708
465.65604 0.99679
464.22765 0.99636
462.79926 0.99591
461.37086 0.99554
459.94247 0.99535
458.51408 0.99534
457.08569 0.99546
455.65729 0.99562
454.22890 0.99575
452.80051 0.99578
451.37211 0.99571
449.94372 0.99552
448.51533 0.99527
447.08694 0.99505
445.65854 0.99494
444.23015 0.99494
442.80176 0.99495
441.37337 0.99488
439.94497 0.99465
438.51658 0.99434
437.08819 0.99404
435.65979 0.99390
434.23140 0.99398
432.80301 0.99432
431.37462 0.99496
429.94622 0.99589
428.51783 0.99701
427.08944 0.99815
425.66104 0.99908
424.23265 0.99966
422.80426 0.99982
421.37587 1.00000
419.94747 0.99994
418.51908 0.99968
417.09069 0.99925
415.66230 0.99873
414.23390 0.99823
412.80551 0.99785
411.37712 0.99762
409.94872 0.99754
408.52033 0.99759
407.09194 0.99799
405.66355 0.99839
404.23515 0.99879
402.80676 0.99920
401.37837 0.99960
399.94998 1.00000
