3998.07803 1.00016
3996.64964 1.00015
3995.22124 1.00014
3993.79285 1.00013
3992.36445 1.00012
3990.93605 1.00011
3989.50766 1.00011
3988.07926 1.00010
3986.65087 1.00009
3985.22247 1.00009
3983.79408 1.00008
3982.36568 1.00008
3980.93729 1.00007
3979.50889 1.00005
3978.08050 1.00003
3976.65210 1.00001
3975.22371 0.99998
3973.79531 0.99996
3972.36692 0.99993
3970.93852 0.99991
3969.51013 0.99989
3968.08173 0.99988
3966.65334 0.99989
3965.22494 0.99990
3963.79655 0.99991
3962.36815 0.99994
3960.93976 0.99996
3959.51136 0.99998
3958.08297 1.00000
3956.65457 1.00001
3955.22618 1.00001
3953.79778 1.00001
3952.36939 1.00001
3950.94099 1.00000
3949.51260 0.99999
3948.08420 0.99998
3946.65581 0.99997
3945.22741 0.99995
3943.79901 0.99994
3942.37062 0.99992
3940.94222 0.99990
3939.51383 0.99988
3938.08543 0.99986
3936.65704 0.99985
3935.22864 0.99984
3933.80025 0.99983
3932.37185 0.99983
3930.94346 0.99983
3929.51506 0.99984
3928.08667 0.99986
3926.65827 0.99986
3925.22988 0.99987
3923.80148 0.99987
3922.37309 0.99987
3920.94469 0.99987
3919.51630 0.99986
3918.08790 0.99984
3916.65951 0.99982
3915.23111 0.99980
3913.80272 0.99978
3912.37432 0.99977
3910.94593 0.99976
3909.51753 0.99975
3908.08914 0.99974
3906.66074 0.99973
3905.23235 0.99971
3903.80395 0.99970
3902.37556 0.99968
3900.94716 0.99967
3899.51877 0.99966
3898.09037 0.99965
3896.66197 0.99964
3895.23358 0.99963
3893.80518 0.99963
3892.37679 0.99963
3890.94839 0.99962
3889.52000 0.99962
3888.09160 0.99960
3886.66321 0.99959
3885.23481 0.99957
3883.80642 0.99954
3882.37802 0.99952
3880.94963 0.99951
3879.52123 0.99951
3878.09284 0.99952
3876.66444 0.99954
3875.23605 0.99957
3873.80765 0.99960
3872.37926 0.99963
3870.95086 0.99966
3869.52247 0.99968
3868.09407 0.99968
3866.66568 0.99967
3865.23728 0.99963
3863.80889 0.99959
3862.38049 0.99953
3860.95210 0.99946
3859.52370 0.99940
3858.09531 0.99934
3856.66691 0.99930
3855.23852 0.99928
3853.81012 0.99927
3852.38173 0.99929
3850.95333 0.99931
3849.52493 0.99934
3848.09654 0.99938
3846.66814 0.99941
3845.23975 0.99943
3843.81135 0.99943
3842.38296 0.99942
3840.95456 0.99938
3839.52617 0.99934
3838.09777 0.99928
3836.66938 0.99921
3835.24098 0.99914
3833.81259 0.99909
3832.38419 0.99904
3830.95580 0.99901
3829.52740 0.99899
3828.09901 0.99898
3826.67061 0.99897
3825.24222 0.99897
3823.81382 0.99896
3822.38543 0.99896
3820.95703 0.99894
3819.52864 0.99893
3818.10024 0.99891
3816.67185 0.99890
3815.24345 0.99888
3813.81506 0.99887
3812.38666 0.99887
3810.95827 0.99887
3809.52987 0.99888
3808.10148 0.99888
3806.67308 0.99889
3805.24469 0.99888
3803.81629 0.99887
3802.38789 0.99884
3800.95950 0.99879
3799.53110 0.99874
3798.10271 0.99868
3796.67431 0.99861
3795.24592 0.99856
3793.81752 0.99851
3792.38913 0.99846
3790.96073 0.99843
3789.53234 0.99840
3788.10394 0.99838
3786.67555 0.99837
3785.24715 0.99837
3783.81876 0.99836
3782.39036 0.99836
3780.96197 0.99836
3779.53357 0.99835
3778.10518 0.99834
3776.67678 0.99834
3775.24839 0.99834
3773.81999 0.99836
3772.39160 0.99837
3770.96320 0.99839
3769.53481 0.99841
3768.10641 0.99843
3766.67802 0.99844
3765.24962 0.99846
3763.82123 0.99849
3762.39283 0.99852
3760.96444 0.99855
3759.53604 0.99858
3758.10765 0.99861
3756.67925 0.99864
3755.25085 0.99866
3753.82246 0.99867
3752.39406 0.99866
3750.96567 0.99863
3749.53727 0.99857
3748.10888 0.99848
3746.68048 0.99836
3745.25209 0.99821
3743.82369 0.99805
3742.39530 0.99788
3740.96690 0.99770
3739.53851 0.99752
3738.11011 0.99734
3736.68172 0.99716
3735.25332 0.99700
3733.82493 0.99685
3732.39653 0.99672
3730.96814 0.99662
3729.53974 0.99656
3728.11135 0.99653
3726.68295 0.99654
3725.25456 0.99659
3723.82616 0.99667
3722.39777 0.99678
3720.96937 0.99690
3719.54098 0.99704
3718.11258 0.99716
3716.68419 0.99726
3715.25579 0.99733
3713.82740 0.99736
3712.39900 0.99736
3710.97061 0.99732
3709.54221 0.99725
3708.11381 0.99716
3706.68542 0.99708
3705.25702 0.99700
3703.82863 0.99695
3702.40023 0.99693
3700.97184 0.99695
3699.54344 0.99699
3698.11505 0.99707
3696.68665 0.99717
3695.25826 0.99728
3693.82986 0.99739
3692.40147 0.99750
3690.97307 0.99759
3689.54468 0.99768
3688.11628 0.99775
3686.68789 0.99781
3685.25949 0.99788
3683.83110 0.99795
3682.40270 0.99804
3680.97431 0.99815
3679.54591 0.99827
3678.11752 0.99841
3676.68912 0.99855
3675.26073 0.99869
3673.83233 0.99882
3672.40394 0.99893
3670.97554 0.99901
3669.54715 0.99907
3668.11875 0.99911
3666.69036 0.99913
3665.26196 0.99914
3663.83357 0.99915
3662.40517 0.99918
3660.97677 0.99921
3659.54838 0.99928
3658.11998 0.99935
3656.69159 0.99945
3655.26319 0.99955
3653.83480 0.99966
3652.40640 0.99976
3650.97801 0.99986
3649.54961 0.99994
3648.12122 0.99999
3646.69282 1.00000
3645.26443 0.99999
3643.83603 0.99995
3642.40764 0.99987
3640.97924 0.99978
3639.55085 0.99966
3638.12245 0.99952
3636.69406 0.99938
3635.26566 0.99924
3633.83727 0.99910
3632.40887 0.99899
3630.98048 0.99890
3629.55208 0.99884
3628.12369 0.99882
3626.69529 0.99882
3625.26690 0.99885
3623.83850 0.99890
3622.41011 0.99897
3620.98171 0.99905
3619.55332 0.99913
3618.12492 0.99920
3616.69653 0.99925
3615.26813 0.99928
3613.83973 0.99929
3612.41134 0.99927
3610.98294 0.99923
3609.55455 0.99916
3608.12615 0.99909
3606.69776 0.99900
3605.26936 0.99892
3603.84097 0.99885
3602.41257 0.99879
3600.98418 0.99876
3599.55578 0.99875
3598.12739 0.99876
3596.69899 0.99878
3595.27060 0.99882
3593.84220 0.99886
3592.41381 0.99890
3590.98541 0.99894
3589.55702 0.99896
3588.12862 0.99897
3586.70023 0.99895
3585.27183 0.99891
3583.84344 0.99887
3582.41504 0.99883
3580.98665 0.99879
3579.55825 0.99876
3578.12986 0.99875
3576.70146 0.99875
3575.27307 0.99877
3573.84467 0.99879
3572.41628 0.99882
3570.98788 0.99885
3569.55949 0.99888
3568.13109 0.99889
3566.70269 0.99889
3565.27430 0.99886
3563.84590 0.99882
3562.41751 0.99877
3560.98911 0.99872
3559.56072 0.99868
3558.13232 0.99865
3556.70393 0.99864
3555.27553 0.99864
3553.84714 0.99866
3552.41874 0.99870
3550.99035 0.99874
3549.56195 0.99878
3548.13356 0.99881
3546.70516 0.99884
3545.27677 0.99885
3543.84837 0.99885
3542.41998 0.99882
3540.99158 0.99877
3539.56319 0.99870
3538.13479 0.99861
3536.70640 0.99852
3535.27800 0.99842
3533.84961 0.99832
3532.42121 0.99823
3530.99282 0.99814
3529.56442 0.99807
3528.13603 0.99802
3526.70763 0.99798
3525.27924 0.99796
3523.85084 0.99796
3522.42245 0.99797
3520.99405 0.99799
3519.56565 0.99801
3518.13726 0.99804
3516.70886 0.99806
3515.28047 0.99808
3513.85207 0.99810
3512.42368 0.99811
3510.99528 0.99812
3509.56689 0.99813
3508.13849 0.99814
3506.71010 0.99815
3505.28170 0.99817
3503.85331 0.99819
3502.42491 0.99821
3500.99652 0.99823
3499.56812 0.99825
3498.13973 0.99827
3496.71133 0.99829
3495.28294 0.99831
3493.85454 0.99834
3492.42615 0.99836
3490.99775 0.99839
3489.56936 0.99841
3488.14096 0.99844
3486.71257 0.99848
3485.28417 0.99852
3483.85578 0.99857
3482.42738 0.99862
3480.99899 0.99868
3479.57059 0.99873
3478.14220 0.99877
3476.71380 0.99881
3475.28541 0.99883
3473.85701 0.99885
3472.42861 0.99886
3471.00022 0.99886
3469.57182 0.99885
3468.14343 0.99884
3466.71503 0.99882
3465.28664 0.99881
3463.85824 0.99879
3462.42985 0.99877
3461.00145 0.99875
3459.57306 0.99874
3458.14466 0.99872
3456.71627 0.99872
3455.28787 0.99873
3453.85948 0.99875
3452.43108 0.99878
3451.00269 0.99883
3449.57429 0.99888
3448.14590 0.99894
3446.71750 0.99901
3445.28911 0.99907
3443.86071 0.99913
3442.43232 0.99918
3441.00392 0.99921
3439.57553 0.99923
3438.14713 0.99923
3436.71874 0.99923
3435.29034 0.99923
3433.86195 0.99923
3432.43355 0.99924
3431.00516 0.99925
3429.57676 0.99927
3428.14837 0.99929
3426.71997 0.99932
3425.29157 0.99936
3423.86318 0.99940
3422.43478 0.99944
3421.00639 0.99949
3419.57799 0.99952
3418.14960 0.99955
3416.72120 0.99957
3415.29281 0.99960
3413.86441 0.99963
3412.43602 0.99966
3411.00762 0.99969
3409.57923 0.99974
3408.15083 0.99978
3406.72244 0.99983
3405.29404 0.99987
3403.86565 0.99992
3402.43725 0.99996
3401.00886 0.99999
3399.58046 1.00000
3398.15207 0.99999
3396.72367 0.99997
3395.29528 0.99992
3393.86688 0.99987
3392.43849 0.99983
3391.01009 0.99979
3389.58170 0.99977
3388.15330 0.99976
3386.72491 0.99977
3385.29651 0.99981
3383.86812 0.99985
3382.43972 0.99990
3381.01133 0.99995
3379.58293 1.00000
3378.15453 1.00003
3376.72614 1.00003
3375.29774 1.00002
3373.86935 0.99998
3372.44095 0.99994
3371.01256 0.99989
3369.58416 0.99986
3368.15577 0.99983
3366.72737 0.99982
3365.29898 0.99982
3363.87058 0.99984
3362.44219 0.99986
3361.01379 0.99990
3359.58540 0.99994
3358.15700 0.99997
3356.72861 1.00000
3355.30021 1.00000
3353.87182 1.00000
3352.44342 0.99998
3351.01503 0.99994
3349.58663 0.99990
3348.15824 0.99985
3346.72984 0.99979
3345.30145 0.99974
3343.87305 0.99969
3342.44466 0.99964
3341.01626 0.99960
3339.58787 0.99956
3338.15947 0.99952
3336.73108 0.99948
3335.30268 0.99945
3333.87428 0.99941
3332.44589 0.99936
3331.01749 0.99932
3329.58910 0.99928
3328.16070 0.99924
3326.73231 0.99921
3325.30391 0.99918
3323.87552 0.99916
3322.44712 0.99916
3321.01873 0.99915
3319.59033 0.99916
3318.16194 0.99917
3316.73354 0.99919
3315.30515 0.99921
3313.87675 0.99923
3312.44836 0.99925
3311.01996 0.99928
3309.59157 0.99930
3308.16317 0.99931
3306.73478 0.99931
3305.30638 0.99930
3303.87799 0.99926
3302.44959 0.99921
3301.02120 0.99915
3299.59280 0.99907
3298.16441 0.99898
3296.73601 0.99889
3295.30762 0.99881
3293.87922 0.99873
3292.45083 0.99867
3291.02243 0.99862
3289.59404 0.99858
3288.16564 0.99856
3286.73724 0.99855
3285.30885 0.99855
3283.88045 0.99855
3282.45206 0.99855
3281.02366 0.99855
3279.59527 0.99856
3278.16687 0.99858
3276.73848 0.99861
3275.31008 0.99864
3273.88169 0.99869
3272.45329 0.99875
3271.02490 0.99881
3269.59650 0.99888
3268.16811 0.99894
3266.73971 0.99900
3265.31132 0.99906
3263.88292 0.99911
3262.45453 0.99916
3261.02613 0.99920
3259.59774 0.99923
3258.16934 0.99925
3256.74095 0.99927
3255.31255 0.99929
3253.88416 0.99932
3252.45576 0.99934
3251.02737 0.99937
3249.59897 0.99938
3248.17058 0.99939
3246.74218 0.99939
3245.31379 0.99939
3243.88539 0.99941
3242.45700 0.99943
3241.02860 0.99946
3239.60020 0.99949
3238.17181 0.99953
3236.74341 0.99956
3235.31502 0.99959
3233.88662 0.99961
3232.45823 0.99963
3231.02983 0.99962
3229.60144 0.99960
3228.17304 0.99956
3226.74465 0.99950
3225.31625 0.99944
3223.88786 0.99937
3222.45946 0.99931
3221.03107 0.99926
3219.60267 0.99923
3218.17428 0.99923
3216.74588 0.99925
3215.31749 0.99928
3213.88909 0.99931
3212.46070 0.99934
3211.03230 0.99936
3209.60391 0.99937
3208.17551 0.99936
3206.74712 0.99933
3205.31872 0.99927
3203.89033 0.99920
3202.46193 0.99911
3201.03354 0.99902
3199.60514 0.99893
3198.17675 0.99885
3196.74835 0.99879
3195.31996 0.99875
3193.89156 0.99872
3192.46316 0.99869
3191.03477 0.99867
3189.60637 0.99864
3188.17798 0.99862
3186.74958 0.99858
3185.32119 0.99854
3183.89279 0.99848
3182.46440 0.99841
3181.03600 0.99834
3179.60761 0.99828
3178.17921 0.99822
3176.75082 0.99816
3175.32242 0.99812
3173.89403 0.99809
3172.46563 0.99806
3171.03724 0.99804
3169.60884 0.99802
3168.18045 0.99800
3166.75205 0.99798
3165.32366 0.99795
3163.89526 0.99791
3162.46687 0.99785
3161.03847 0.99778
3159.61008 0.99771
3158.18168 0.99763
3156.75329 0.99755
3155.32489 0.99747
3153.89650 0.99740
3152.46810 0.99733
3151.03971 0.99727
3149.61131 0.99723
3148.18292 0.99719
3146.75452 0.99717
3145.32612 0.99714
3143.89773 0.99712
3142.46933 0.99710
3141.04094 0.99707
3139.61254 0.99703
3138.18415 0.99699
3136.75575 0.99695
3135.32736 0.99690
3133.89896 0.99685
3132.47057 0.99680
3131.04217 0.99674
3129.61378 0.99670
3128.18538 0.99665
3126.75699 0.99662
3125.32859 0.99660
3123.90020 0.99658
3122.47180 0.99657
3121.04341 0.99657
3119.61501 0.99656
3118.18662 0.99655
3116.75822 0.99654
3115.32983 0.99652
3113.90143 0.99650
3112.47304 0.99647
3111.04464 0.99644
3109.61625 0.99640
3108.18785 0.99636
3106.75946 0.99633
3105.33106 0.99629
3103.90267 0.99626
3102.47427 0.99622
3101.04588 0.99618
3099.61748 0.99614
3098.18908 0.99610
3096.76069 0.99606
3095.33229 0.99602
3093.90390 0.99598
3092.47550 0.99596
3091.04711 0.99594
3089.61871 0.99593
3088.19032 0.99592
3086.76192 0.99593
3085.33353 0.99594
3083.90513 0.99595
3082.47674 0.99596
3081.04834 0.99597
3079.61995 0.99597
3078.19155 0.99596
3076.76316 0.99595
3075.33476 0.99594
3073.90637 0.99594
3072.47797 0.99593
3071.04958 0.99593
3069.62118 0.99593
3068.19279 0.99594
3066.76439 0.99594
3065.33600 0.99595
3063.90760 0.99596
3062.47921 0.99596
3061.05081 0.99597
3059.62242 0.99598
3058.19402 0.99598
3056.76563 0.99600
3055.33723 0.99602
3053.90884 0.99605
3052.48044 0.99608
3051.05204 0.99611
3049.62365 0.99615
3048.19525 0.99620
3046.76686 0.99623
3045.33846 0.99627
3043.91007 0.99630
3042.48167 0.99632
3041.05328 0.99634
3039.62488 0.99635
3038.19649 0.99636
3036.76809 0.99637
3035.33970 0.99637
3033.91130 0.99637
3032.48291 0.99637
3031.05451 0.99637
3029.62612 0.99636
3028.19772 0.99634
3026.76933 0.99632
3025.34093 0.99629
3023.91254 0.99626
3022.48414 0.99624
3021.05575 0.99623
3019.62735 0.99622
3018.19896 0.99622
3016.77056 0.99624
3015.34217 0.99626
3013.91377 0.99629
3012.48538 0.99631
3011.05698 0.99633
3009.62859 0.99634
3008.20019 0.99633
3006.77180 0.99631
3005.34340 0.99627
3003.91500 0.99622
3002.48661 0.99616
3001.05821 0.99609
2999.62982 0.99602
2998.20142 0.99594
2996.77303 0.99586
2995.34463 0.99579
2993.91624 0.99570
2992.48784 0.99561
2991.05945 0.99551
2989.63105 0.99541
2988.20266 0.99529
2986.77426 0.99517
2985.34587 0.99503
2983.91747 0.99489
2982.48908 0.99474
2981.06068 0.99458
2979.63229 0.99440
2978.20389 0.99420
2976.77550 0.99398
2975.34710 0.99375
2973.91871 0.99349
2972.49031 0.99323
2971.06192 0.99295
2969.63352 0.99268
2968.20513 0.99241
2966.77673 0.99216
2965.34834 0.99193
2963.91994 0.99172
2962.49155 0.99155
2961.06315 0.99141
2959.63476 0.99130
2958.20636 0.99120
2956.77796 0.99112
2955.34957 0.99104
2953.92117 0.99097
2952.49278 0.99089
2951.06438 0.99082
2949.63599 0.99075
2948.20759 0.99068
2946.77920 0.99062
2945.35080 0.99057
2943.92241 0.99053
2942.49401 0.99052
2941.06562 0.99052
2939.63722 0.99055
2938.20883 0.99059
2936.78043 0.99065
2935.35204 0.99072
2933.92364 0.99081
2932.49525 0.99090
2931.06685 0.99100
2929.63846 0.99110
2928.21006 0.99120
2926.78167 0.99130
2925.35327 0.99140
2923.92488 0.99149
2922.49648 0.99157
2921.06809 0.99165
2919.63969 0.99173
2918.21130 0.99180
2916.78290 0.99187
2915.35451 0.99194
2913.92611 0.99200
2912.49772 0.99205
2911.06932 0.99209
2909.64092 0.99212
2908.21253 0.99215
2906.78413 0.99217
2905.35574 0.99218
2903.92734 0.99219
2902.49895 0.99219
2901.07055 0.99219
2899.64216 0.99219
2898.21376 0.99220
2896.78537 0.99221
2895.35697 0.99224
2893.92858 0.99227
2892.50018 0.99232
2891.07179 0.99237
2889.64339 0.99244
2888.21500 0.99253
2886.78660 0.99262
2885.35821 0.99272
2883.92981 0.99283
2882.50142 0.99294
2881.07302 0.99305
2879.64463 0.99316
2878.21623 0.99326
2876.78784 0.99336
2875.35944 0.99344
2873.93105 0.99352
2872.50265 0.99360
2871.07426 0.99367
2869.64586 0.99374
2868.21747 0.99380
2866.78907 0.99386
2865.36068 0.99392
2863.93228 0.99397
2862.50388 0.99403
2861.07549 0.99408
2859.64709 0.99414
2858.21870 0.99419
2856.79030 0.99425
2855.36191 0.99431
2853.93351 0.99436
2852.50512 0.99443
2851.07672 0.99450
2849.64833 0.99459
2848.21993 0.99468
2846.79154 0.99478
2845.36314 0.99488
2843.93475 0.99498
2842.50635 0.99508
2841.07796 0.99518
2839.64956 0.99528
2838.22117 0.99538
2836.79277 0.99548
2835.36438 0.99558
2833.93598 0.99566
2832.50759 0.99575
2831.07919 0.99583
2829.65080 0.99591
2828.22240 0.99598
2826.79401 0.99606
2825.36561 0.99613
2823.93722 0.99619
2822.50882 0.99624
2821.08043 0.99629
2819.65203 0.99632
2818.22364 0.99636
2816.79524 0.99640
2815.36684 0.99643
2813.93845 0.99647
2812.51005 0.99650
2811.08166 0.99654
2809.65326 0.99659
2808.22487 0.99665
2806.79647 0.99671
2805.36808 0.99678
2803.93968 0.99685
2802.51129 0.99691
2801.08289 0.99697
2799.65450 0.99703
2798.22610 0.99708
2796.79771 0.99713
2795.36931 0.99718
2793.94092 0.99723
2792.51252 0.99727
2791.08413 0.99730
2789.65573 0.99734
2788.22734 0.99738
2786.79894 0.99741
2785.37055 0.99745
2783.94215 0.99748
2782.51376 0.99751
2781.08536 0.99754
2779.65697 0.99756
2778.22857 0.99758
2776.80018 0.99761
2775.37178 0.99763
2773.94339 0.99765
2772.51499 0.99767
2771.08660 0.99769
2769.65820 0.99771
2768.22980 0.99773
2766.80141 0.99775
2765.37301 0.99777
2763.94462 0.99780
2762.51622 0.99782
2761.08783 0.99784
2759.65943 0.99786
2758.23104 0.99787
2756.80264 0.99788
2755.37425 0.99788
2753.94585 0.99788
2752.51746 0.99788
2751.08906 0.99788
2749.66067 0.99788
2748.23227 0.99789
2746.80388 0.99790
2745.37548 0.99791
2743.94709 0.99794
2742.51869 0.99798
2741.09030 0.99803
2739.66190 0.99807
2738.23351 0.99812
2736.80511 0.99816
2735.37672 0.99820
2733.94832 0.99823
2732.51993 0.99826
2731.09153 0.99828
2729.66314 0.99829
2728.23474 0.99830
2726.80635 0.99831
2725.37795 0.99832
2723.94956 0.99833
2722.52116 0.99834
2721.09276 0.99836
2719.66437 0.99838
2718.23597 0.99840
2716.80758 0.99841
2715.37918 0.99843
2713.95079 0.99844
2712.52239 0.99844
2711.09400 0.99845
2709.66560 0.99845
2708.23721 0.99845
2706.80881 0.99846
2705.38042 0.99846
2703.95202 0.99847
2702.52363 0.99849
2701.09523 0.99851
2699.66684 0.99853
2698.23844 0.99856
2696.81005 0.99859
2695.38165 0.99862
2693.95326 0.99864
2692.52486 0.99866
2691.09647 0.99867
2689.66807 0.99867
2688.23968 0.99867
2686.81128 0.99866
2685.38289 0.99865
2683.95449 0.99864
2682.52610 0.99862
2681.09770 0.99861
2679.66931 0.99860
2678.24091 0.99860
2676.81252 0.99861
2675.38412 0.99862
2673.95572 0.99864
2672.52733 0.99865
2671.09893 0.99866
2669.67054 0.99868
2668.24214 0.99869
2666.81375 0.99870
2665.38535 0.99872
2663.95696 0.99873
2662.52856 0.99875
2661.10017 0.99876
2659.67177 0.99878
2658.24338 0.99880
2656.81498 0.99882
2655.38659 0.99884
2653.95819 0.99887
2652.52980 0.99889
2651.10140 0.99891
2649.67301 0.99893
2648.24461 0.99895
2646.81622 0.99897
2645.38782 0.99898
2643.95943 0.99899
2642.53103 0.99901
2641.10264 0.99902
2639.67424 0.99904
2638.24585 0.99907
2636.81745 0.99909
2635.38906 0.99912
2633.96066 0.99915
2632.53227 0.99918
2631.10387 0.99922
2629.67548 0.99925
2628.24708 0.99929
2626.81868 0.99932
2625.39029 0.99935
2623.96189 0.99937
2622.53350 0.99939
2621.10510 0.99940
2619.67671 0.99942
2618.24831 0.99945
2616.81992 0.99947
2615.39152 0.99950
2613.96313 0.99953
2612.53473 0.99955
2611.10634 0.99957
2609.67794 0.99960
2608.24955 0.99961
2606.82115 0.99963
2605.39276 0.99963
2603.96436 0.99963
2602.53597 0.99962
2601.10757 0.99961
2599.67918 0.99960
2598.25078 0.99959
2596.82239 0.99960
2595.39399 0.99962
2593.96560 0.99964
2592.53720 0.99967
2591.10881 0.99970
2589.68041 0.99974
2588.25202 0.99977
2586.82362 0.99980
2585.39523 0.99983
2583.96683 0.99986
2582.53843 0.99988
2581.11004 0.99988
2579.68164 0.99988
2578.25325 0.99988
2576.82485 0.99987
2575.39646 0.99987
2573.96806 0.99987
2572.53967 0.99988
2571.11127 0.99989
2569.68288 0.99991
2568.25448 0.99992
2566.82609 0.99994
2565.39769 0.99996
2563.96930 0.99998
2562.54090 1.00000
2561.11251 1.00000
2559.68411 0.99999
2558.25572 0.99997
2556.82732 0.99993
2555.39893 0.99990
2553.97053 0.99986
2552.54214 0.99983
2551.11374 0.99981
2549.68535 0.99980
2548.25695 0.99979
2546.82856 0.99980
2545.40016 0.99982
2543.97177 0.99984
2542.54337 0.99987
2541.11498 0.99989
2539.68658 0.99991
2538.25819 0.99992
2536.82979 0.99993
2535.40139 0.99994
2533.97300 0.99993
2532.54460 0.99993
2531.11621 0.99991
2529.68781 0.99990
2528.25942 0.99988
2526.83102 0.99986
2525.40263 0.99984
2523.97423 0.99982
2522.54584 0.99980
2521.11744 0.99978
2519.68905 0.99976
2518.26065 0.99975
2516.83226 0.99975
2515.40386 0.99977
2513.97547 0.99979
2512.54707 0.99982
2511.11868 0.99985
2509.69028 0.99988
2508.26189 0.99992
2506.83349 0.99994
2505.40510 0.99996
2503.97670 0.99998
2502.54831 0.99998
2501.11991 0.99997
2499.69152 0.99996
2498.26312 0.99995
2496.83473 0.99994
2495.40633 0.99993
2493.97794 0.99993
2492.54954 0.99994
2491.12115 0.99995
2489.69275 0.99996
2488.26435 0.99998
2486.83596 0.99999
2485.40756 1.00000
2483.97917 1.00000
2482.55077 0.99999
2481.12238 0.99998
2479.69398 0.99996
2478.26559 0.99994
2476.83719 0.99992
2475.40880 0.99990
2473.98040 0.99989
2472.55201 0.99989
2471.12361 0.99989
2469.69522 0.99989
2468.26682 0.99990
2466.83843 0.99990
2465.41003 0.99990
2463.98164 0.99989
2462.55324 0.99988
2461.12485 0.99986
2459.69645 0.99985
2458.26806 0.99983
2456.83966 0.99982
2455.41127 0.99981
2453.98287 0.99981
2452.55448 0.99982
2451.12608 0.99984
2449.69769 0.99986
2448.26929 0.99988
2446.84090 0.99990
2445.41250 0.99993
2443.98411 0.99995
2442.55571 0.99997
2441.12731 0.99998
2439.69892 0.99999
2438.27052 0.99999
2436.84213 0.99999
2435.41373 0.99998
2433.98534 0.99997
2432.55694 0.99995
2431.12855 0.99993
2429.70015 0.99990
2428.27176 0.99988
2426.84336 0.99985
2425.41497 0.99982
2423.98657 0.99980
2422.55818 0.99978
2421.12978 0.99978
2419.70139 0.99978
2418.27299 0.99979
2416.84460 0.99981
2415.41620 0.99984
2413.98781 0.99987
2412.55941 0.99990
2411.13102 0.99993
2409.70262 0.99995
2408.27423 0.99997
2406.84583 0.99999
2405.41744 1.00000
2403.98904 1.00000
2402.56065 1.00000
2401.13225 0.99999
2399.70386 0.99998
2398.27546 0.99997
2396.84707 0.99996
2395.41867 0.99995
2393.99027 0.99994
2392.56188 0.99993
2391.13348 0.99993
2389.70509 0.99993
2388.27669 0.99993
2386.84830 0.99993
2385.41990 0.99993
2383.99151 0.99994
2382.56311 0.99994
2381.13472 0.99995
2379.70632 0.99995
2378.27793 0.99995
2376.84953 0.99995
2375.42114 0.99995
2373.99274 0.99995
2372.56435 0.99996
2371.13595 0.99996
2369.70756 0.99996
2368.27916 0.99996
2366.85077 0.99996
2365.42237 0.99996
2363.99398 0.99996
2362.56558 0.99996
2361.13719 0.99996
2359.70879 0.99997
2358.28040 0.99997
2356.85200 0.99997
2355.42361 0.99997
2353.99521 0.99997
2352.56682 0.99997
2351.13842 0.99997
2349.71003 0.99997
2348.28163 0.99997
2346.85323 0.99997
2345.42484 0.99997
2343.99644 0.99997
2342.56805 0.99997
2341.13965 0.99997
2339.71126 0.99997
2338.28286 0.99997
2336.85447 0.99997
2335.42607 0.99997
2333.99768 0.99997
2332.56928 0.99997
2331.14089 0.99997
2329.71249 0.99997
2328.28410 0.99997
2326.85570 0.99997
2325.42731 0.99997
2323.99891 0.99997
2322.57052 0.99997
2321.14212 0.99996
2319.71373 0.99996
2318.28533 0.99996
2316.85694 0.99996
2315.42854 0.99996
2314.00015 0.99996
2312.57175 0.99996
2311.14336 0.99996
2309.71496 0.99995
2308.28657 0.99995
2306.85817 0.99995
2305.42978 0.99995
2304.00138 0.99995
2302.57299 0.99995
2301.14459 0.99994
2299.71619 0.99994
2298.28780 0.99994
2296.85940 0.99994
2295.43101 0.99994
2294.00261 0.99993
2292.57422 0.99993
2291.14582 0.99993
2289.71743 0.99993
2288.28903 0.99993
2286.86064 0.99992
2285.43224 0.99992
2284.00385 0.99992
2282.57545 0.99991
2281.14706 0.99991
2279.71866 0.99991
2278.29027 0.99991
2276.86187 0.99990
2275.43348 0.99990
2274.00508 0.99990
2272.57669 0.99989
2271.14829 0.99989
2269.71990 0.99989
2268.29150 0.99988
2266.86311 0.99988
2265.43471 0.99988
2264.00632 0.99987
2262.57792 0.99987
2261.14953 0.99987
2259.72113 0.99986
2258.29274 0.99986
2256.86434 0.99986
2255.43595 0.99985
2254.00755 0.99985
2252.57915 0.99984
2251.15076 0.99984
2249.72236 0.99983
2248.29397 0.99983
2246.86557 0.99983
2245.43718 0.99982
2244.00878 0.99982
2242.58039 0.99981
2241.15199 0.99981
2239.72360 0.99980
2238.29520 0.99980
2236.86681 0.99979
2235.43841 0.99979
2234.01002 0.99978
2232.58162 0.99978
2231.15323 0.99977
2229.72483 0.99977
2228.29644 0.99976
2226.86804 0.99976
2225.43965 0.99975
2224.01125 0.99975
2222.58286 0.99974
2221.15446 0.99974
2219.72607 0.99973
2218.29767 0.99973
2216.86928 0.99972
2215.44088 0.99971
2214.01249 0.99971
2212.58409 0.99970
2211.15570 0.99970
2209.72730 0.99969
2208.29891 0.99969
2206.87051 0.99968
2205.44211 0.99968
2204.01372 0.99967
2202.58532 0.99966
2201.15693 0.99965
2199.72853 0.99964
2198.30014 0.99962
2196.87174 0.99960
2195.44335 0.99958
2194.01495 0.99957
2192.58656 0.99957
2191.15816 0.99957
2189.72977 0.99958
2188.30137 0.99958
2186.87298 0.99959
2185.44458 0.99960
2184.01619 0.99961
2182.58779 0.99963
2181.15940 0.99966
2179.73100 0.99969
2178.30261 0.99973
2176.87421 0.99977
2175.44582 0.99982
2174.01742 0.99987
2172.58903 0.99992
2171.16063 0.99996
2169.73224 0.99999
2168.30384 1.00000
2166.87545 0.99999
2165.44705 0.99995
2164.01866 0.99988
2162.59026 0.99980
2161.16187 0.99971
2159.73347 0.99964
2158.30507 0.99958
2156.87668 0.99954
2155.44828 0.99953
2154.01989 0.99955
2152.59149 0.99959
2151.16310 0.99963
2149.73470 0.99969
2148.30631 0.99974
2146.87791 0.99979
2145.44952 0.99981
2144.02112 0.99980
2142.59273 0.99977
2141.16433 0.99972
2139.73594 0.99965
2138.30754 0.99957
2136.87915 0.99948
2135.45075 0.99939
2134.02236 0.99932
2132.59396 0.99925
2131.16557 0.99920
2129.73717 0.99916
2128.30878 0.99913
2126.88038 0.99912
2125.45199 0.99913
2124.02359 0.99916
2122.59520 0.99919
2121.16680 0.99923
2119.73841 0.99927
2118.31001 0.99931
2116.88162 0.99934
2115.45322 0.99937
2114.02483 0.99940
2112.59643 0.99942
2111.16803 0.99945
2109.73964 0.99947
2108.31124 0.99949
2106.88285 0.99952
2105.45445 0.99955
2104.02606 0.99960
2102.59766 0.99965
2101.16927 0.99970
2099.74087 0.99975
2098.31248 0.99981
2096.88408 0.99987
2095.45569 0.99991
2094.02729 0.99993
2092.59890 0.99994
2091.17050 0.99992
2089.74211 0.99988
2088.31371 0.99982
2086.88532 0.99975
2085.45692 0.99968
2084.02853 0.99960
2082.60013 0.99953
2081.17174 0.99947
2079.74334 0.99943
2078.31495 0.99941
2076.88655 0.99940
2075.45816 0.99941
2074.02976 0.99943
2072.60137 0.99945
2071.17297 0.99947
2069.74458 0.99949
2068.31618 0.99951
2066.88779 0.99954
2065.45939 0.99958
2064.03099 0.99963
2062.60260 0.99969
2061.17420 0.99975
2059.74581 0.99982
2058.31741 0.99988
2056.88902 0.99994
2055.46062 0.99997
2054.03223 0.99998
2052.60383 0.99995
2051.17544 0.99990
2049.74704 0.99984
2048.31865 0.99976
2046.89025 0.99969
2045.46186 0.99962
2044.03346 0.99955
2042.60507 0.99949
2041.17667 0.99945
2039.74828 0.99941
2038.31988 0.99939
2036.89149 0.99937
2035.46309 0.99935
2034.03470 0.99932
2032.60630 0.99927
2031.17791 0.99922
2029.74951 0.99917
2028.32112 0.99914
2026.89272 0.99913
2025.46433 0.99914
2024.03593 0.99917
2022.60754 0.99919
2021.17914 0.99922
2019.75075 0.99924
2018.32235 0.99926
2016.89395 0.99926
2015.46556 0.99925
2014.03716 0.99923
2012.60877 0.99920
2011.18037 0.99917
2009.75198 0.99915
2008.32358 0.99915
2006.89519 0.99917
2005.46679 0.99923
2004.03840 0.99932
2002.61000 0.99942
2001.18161 0.99952
1999.75321 0.99962
1998.32482 0.99969
1996.89642 0.99974
1995.46803 0.99975
1994.03963 0.99973
1992.61124 0.99966
1991.18284 0.99958
1989.75445 0.99948
1988.32605 0.99938
1986.89766 0.99928
1985.46926 0.99919
1984.04087 0.99912
1982.61247 0.99907
1981.18408 0.99906
1979.75568 0.99906
1978.32729 0.99909
1976.89889 0.99911
1975.47050 0.99913
1974.04210 0.99914
1972.61371 0.99913
1971.18531 0.99911
1969.75691 0.99907
1968.32852 0.99902
1966.90012 0.99898
1965.47173 0.99893
1964.04333 0.99888
1962.61494 0.99885
1961.18654 0.99884
1959.75815 0.99884
1958.32975 0.99887
1956.90136 0.99891
1955.47296 0.99894
1954.04457 0.99896
1952.61617 0.99897
1951.18778 0.99898
1949.75938 0.99898
1948.33099 0.99898
1946.90259 0.99897
1945.47420 0.99895
1944.04580 0.99893
1942.61741 0.99891
1941.18901 0.99890
1939.76062 0.99889
1938.33222 0.99889
1936.90383 0.99890
1935.47543 0.99890
1934.04704 0.99889
1932.61864 0.99888
1931.19025 0.99886
1929.76185 0.99885
1928.33346 0.99884
1926.90506 0.99883
1925.47667 0.99881
1924.04827 0.99879
1922.61987 0.99876
1921.19148 0.99873
1919.76308 0.99870
1918.33469 0.99867
1916.90629 0.99864
1915.47790 0.99861
1914.04950 0.99858
1912.62111 0.99855
1911.19271 0.99853
1909.76432 0.99851
1908.33592 0.99850
1906.90753 0.99850
1905.47913 0.99852
1904.05074 0.99854
1902.62234 0.99856
1901.19395 0.99859
1899.76555 0.99862
1898.33716 0.99864
1896.90876 0.99866
1895.48037 0.99867
1894.05197 0.99866
1892.62358 0.99865
1891.19518 0.99862
1889.76679 0.99858
1888.33839 0.99853
1886.91000 0.99848
1885.48160 0.99845
1884.05321 0.99843
1882.62481 0.99843
1881.19642 0.99844
1879.76802 0.99847
1878.33963 0.99851
1876.91123 0.99855
1875.48283 0.99860
1874.05444 0.99864
1872.62604 0.99867
1871.19765 0.99869
1869.76925 0.99869
1868.34086 0.99868
1866.91246 0.99865
1865.48407 0.99861
1864.05567 0.99857
1862.62728 0.99852
1861.19888 0.99848
1859.77049 0.99844
1858.34209 0.99840
1856.91370 0.99837
1855.48530 0.99834
1854.05691 0.99833
1852.62851 0.99831
1851.20012 0.99831
1849.77172 0.99831
1848.34333 0.99831
1846.91493 0.99832
1845.48654 0.99833
1844.05814 0.99834
1842.62975 0.99834
1841.20135 0.99835
1839.77296 0.99835
1838.34456 0.99835
1836.91617 0.99834
1835.48777 0.99834
1834.05938 0.99833
1832.63098 0.99831
1831.20258 0.99828
1829.77419 0.99825
1828.34579 0.99821
1826.91740 0.99817
1825.48900 0.99812
1824.06061 0.99808
1822.63221 0.99804
1821.20382 0.99801
1819.77542 0.99799
1818.34703 0.99798
1816.91863 0.99798
1815.49024 0.99799
1814.06184 0.99801
1812.63345 0.99803
1811.20505 0.99806
1809.77666 0.99809
1808.34826 0.99811
1806.91987 0.99812
1805.49147 0.99814
1804.06308 0.99815
1802.63468 0.99816
1801.20629 0.99816
1799.77789 0.99816
1798.34950 0.99817
1796.92110 0.99817
1795.49271 0.99817
1794.06431 0.99817
1792.63592 0.99816
1791.20752 0.99814
1789.77913 0.99811
1788.35073 0.99808
1786.92234 0.99804
1785.49394 0.99800
1784.06554 0.99796
1782.63715 0.99792
1781.20875 0.99788
1779.78036 0.99785
1778.35196 0.99784
1776.92357 0.99783
1775.49517 0.99784
1774.06678 0.99786
1772.63838 0.99788
1771.20999 0.99790
1769.78159 0.99792
1768.35320 0.99793
1766.92480 0.99793
1765.49641 0.99793
1764.06801 0.99792
1762.63962 0.99791
1761.21122 0.99789
1759.78283 0.99788
1758.35443 0.99787
1756.92604 0.99787
1755.49764 0.99787
1754.06925 0.99789
1752.64085 0.99790
1751.21246 0.99792
1749.78406 0.99793
1748.35567 0.99793
1746.92727 0.99793
1745.49888 0.99792
1744.07048 0.99789
1742.64209 0.99786
1741.21369 0.99783
1739.78530 0.99779
1738.35690 0.99774
1736.92850 0.99770
1735.50011 0.99766
1734.07171 0.99762
1732.64332 0.99759
1731.21492 0.99757
1729.78653 0.99756
1728.35813 0.99755
1726.92974 0.99756
1725.50134 0.99758
1724.07295 0.99760
1722.64455 0.99764
1721.21616 0.99767
1719.78776 0.99771
1718.35937 0.99774
1716.93097 0.99777
1715.50258 0.99779
1714.07418 0.99781
1712.64579 0.99782
1711.21739 0.99784
1709.78900 0.99785
1708.36060 0.99787
1706.93221 0.99789
1705.50381 0.99791
1704.07542 0.99793
1702.64702 0.99794
1701.21863 0.99794
1699.79023 0.99795
1698.36184 0.99794
1696.93344 0.99793
1695.50505 0.99791
1694.07665 0.99788
1692.64826 0.99786
1691.21986 0.99783
1689.79146 0.99781
1688.36307 0.99778
1686.93467 0.99776
1685.50628 0.99773
1684.07788 0.99768
1682.64949 0.99763
1681.22109 0.99756
1679.79270 0.99748
1678.36430 0.99740
1676.93591 0.99731
1675.50751 0.99722
1674.07912 0.99713
1672.65072 0.99704
1671.22233 0.99695
1669.79393 0.99685
1668.36554 0.99675
1666.93714 0.99665
1665.50875 0.99654
1664.08035 0.99643
1662.65196 0.99633
1661.22356 0.99622
1659.79517 0.99613
1658.36677 0.99607
1656.93838 0.99603
1655.50998 0.99602
1654.08159 0.99606
1652.65319 0.99613
1651.22480 0.99625
1649.79640 0.99640
1648.36801 0.99657
1646.93961 0.99678
1645.51122 0.99700
1644.08282 0.99723
1642.65442 0.99746
1641.22603 0.99770
1639.79763 0.99794
1638.36924 0.99818
1636.94084 0.99841
1635.51245 0.99862
1634.08405 0.99882
1632.65566 0.99901
1631.22726 0.99918
1629.79887 0.99934
1628.37047 0.99948
1626.94208 0.99961
1625.51368 0.99972
1624.08529 0.99981
1622.65689 0.99989
1621.22850 0.99994
1619.80010 0.99998
1618.37171 0.99999
1616.94331 0.99999
1615.51492 1.00000
1614.08652 1.00000
1612.65813 0.99999
1611.22973 0.99997
1609.80134 0.99994
1608.37294 0.99991
1606.94455 0.99987
1605.51615 0.99984
1604.08776 0.99981
1602.65936 0.99978
1601.23097 0.99976
1599.80257 0.99973
1598.37418 0.99969
1596.94578 0.99965
1595.51738 0.99959
1594.08899 0.99954
1592.66059 0.99947
1591.23220 0.99941
1589.80380 0.99934
1588.37541 0.99927
1586.94701 0.99921
1585.51862 0.99916
1584.09022 0.99911
1582.66183 0.99907
1581.23343 0.99903
1579.80504 0.99899
1578.37664 0.99894
1576.94825 0.99888
1575.51985 0.99882
1574.09146 0.99874
1572.66306 0.99866
1571.23467 0.99857
1569.80627 0.99848
1568.37788 0.99839
1566.94948 0.99831
1565.52109 0.99822
1564.09269 0.99814
1562.66430 0.99805
1561.23590 0.99796
1559.80751 0.99786
1558.37911 0.99775
1556.95072 0.99763
1555.52232 0.99750
1554.09393 0.99738
1552.66553 0.99728
1551.23714 0.99719
1549.80874 0.99712
1548.38034 0.99708
1546.95195 0.99707
1545.52355 0.99708
1544.09516 0.99712
1542.66676 0.99716
1541.23837 0.99722
1539.80997 0.99728
1538.38158 0.99734
1536.95318 0.99739
1535.52479 0.99744
1534.09639 0.99748
1532.66800 0.99754
1531.23960 0.99759
1529.81121 0.99765
1528.38281 0.99770
1526.95442 0.99776
1525.52602 0.99782
1524.09763 0.99787
1522.66923 0.99793
1521.24084 0.99798
1519.81244 0.99802
1518.38405 0.99805
1516.95565 0.99808
1515.52726 0.99810
1514.09886 0.99812
1512.67047 0.99815
1511.24207 0.99816
1509.81368 0.99818
1508.38528 0.99819
1506.95689 0.99818
1505.52849 0.99817
1504.10010 0.99816
1502.67170 0.99814
1501.24330 0.99813
1499.81491 0.99812
1498.38651 0.99810
1496.95812 0.99808
1495.52972 0.99805
1494.10133 0.99801
1492.67293 0.99797
1491.24454 0.99791
1489.81614 0.99784
1488.38775 0.99775
1486.95935 0.99763
1485.53096 0.99749
1484.10256 0.99732
1482.67417 0.99713
1481.24577 0.99691
1479.81738 0.99666
1478.38898 0.99638
1476.96059 0.99607
1475.53219 0.99573
1474.10380 0.99537
1472.67540 0.99500
1471.24701 0.99463
1469.81861 0.99427
1468.39022 0.99394
1466.96182 0.99364
1465.53343 0.99338
1464.10503 0.99315
1462.67664 0.99297
1461.24824 0.99283
1459.81985 0.99272
1458.39145 0.99262
1456.96306 0.99253
1455.53466 0.99243
1454.10626 0.99232
1452.67787 0.99218
1451.24947 0.99202
1449.82108 0.99183
1448.39268 0.99162
1446.96429 0.99139
1445.53589 0.99114
1444.10750 0.99089
1442.67910 0.99063
1441.25071 0.99037
1439.82231 0.99010
1438.39392 0.98984
1436.96552 0.98957
1435.53713 0.98932
1434.10873 0.98907
1432.68034 0.98883
1431.25194 0.98861
1429.82355 0.98840
1428.39515 0.98820
1426.96676 0.98801
1425.53836 0.98785
1424.10997 0.98770
1422.68157 0.98758
1421.25318 0.98747
1419.82478 0.98738
1418.39639 0.98730
1416.96799 0.98724
1415.53960 0.98719
1414.11120 0.98717
1412.68281 0.98718
1411.25441 0.98722
1409.82602 0.98729
1408.39762 0.98739
1406.96922 0.98752
1405.54083 0.98768
1404.11243 0.98788
1402.68404 0.98810
1401.25564 0.98835
1399.82725 0.98862
1398.39885 0.98889
1396.97046 0.98917
1395.54206 0.98945
1394.11367 0.98972
1392.68527 0.98998
1391.25688 0.99023
1389.82848 0.99048
1388.40009 0.99071
1386.97169 0.99094
1385.54330 0.99115
1384.11490 0.99135
1382.68651 0.99154
1381.25811 0.99173
1379.82972 0.99190
1378.40132 0.99206
1376.97293 0.99222
1375.54453 0.99236
1374.11614 0.99248
1372.68774 0.99259
1371.25935 0.99268
1369.83095 0.99276
1368.40256 0.99283
1366.97416 0.99289
1365.54577 0.99294
1364.11737 0.99298
1362.68898 0.99300
1361.26058 0.99302
1359.83218 0.99302
1358.40379 0.99301
1356.97539 0.99300
1355.54700 0.99298
1354.11860 0.99296
1352.69021 0.99294
1351.26181 0.99292
1349.83342 0.99290
1348.40502 0.99288
1346.97663 0.99287
1345.54823 0.99285
1344.11984 0.99284
1342.69144 0.99282
1341.26305 0.99279
1339.83465 0.99275
1338.40626 0.99271
1336.97786 0.99265
1335.54947 0.99260
1334.12107 0.99254
1332.69268 0.99248
1331.26428 0.99243
1329.83589 0.99238
1328.40749 0.99235
1326.97910 0.99233
1325.55070 0.99232
1324.12231 0.99232
1322.69391 0.99233
1321.26552 0.99234
1319.83712 0.99236
1318.40873 0.99237
1316.98033 0.99238
1315.55194 0.99239
1314.12354 0.99240
1312.69514 0.99240
1311.26675 0.99241
1309.83835 0.99241
1308.40996 0.99242
1306.98156 0.99243
1305.55317 0.99245
1304.12477 0.99247
1302.69638 0.99249
1301.26798 0.99252
1299.83959 0.99255
1298.41119 0.99259
1296.98280 0.99263
1295.55440 0.99268
1294.12601 0.99272
1292.69761 0.99277
1291.26922 0.99282
1289.84082 0.99287
1288.41243 0.99292
1286.98403 0.99298
1285.55564 0.99304
1284.12724 0.99310
1282.69885 0.99316
1281.27045 0.99322
1279.84206 0.99326
1278.41366 0.99328
1276.98527 0.99325
1275.55687 0.99318
1274.12848 0.99304
1272.70008 0.99285
1271.27169 0.99261
1269.84329 0.99233
1268.41490 0.99202
1266.98650 0.99171
1265.55810 0.99142
1264.12971 0.99119
1262.70131 0.99104
1261.27292 0.99098
1259.84452 0.99103
1258.41613 0.99117
1256.98773 0.99139
1255.55934 0.99166
1254.13094 0.99197
1252.70255 0.99228
1251.27415 0.99258
1249.84576 0.99285
1248.41736 0.99307
1246.98897 0.99324
1245.56057 0.99336
1244.13218 0.99343
1242.70378 0.99347
1241.27539 0.99349
1239.84699 0.99349
1238.41860 0.99348
1236.99020 0.99347
1235.56181 0.99346
1234.13341 0.99344
1232.70502 0.99343
1231.27662 0.99341
1229.84823 0.99338
1228.41983 0.99336
1226.99144 0.99333
1225.56304 0.99331
1224.13465 0.99329
1222.70625 0.99328
1221.27786 0.99328
1219.84946 0.99328
1218.42106 0.99330
1216.99267 0.99334
1215.56427 0.99340
1214.13588 0.99348
1212.70748 0.99359
1211.27909 0.99373
1209.85069 0.99390
1208.42230 0.99410
1206.99390 0.99432
1205.56551 0.99457
1204.13711 0.99484
1202.70872 0.99513
1201.28032 0.99544
1199.85193 0.99575
1198.42353 0.99607
1196.99514 0.99639
1195.56674 0.99671
1194.13835 0.99701
1192.70995 0.99731
1191.28156 0.99759
1189.85316 0.99786
1188.42477 0.99811
1186.99637 0.99835
1185.56798 0.99856
1184.13958 0.99876
1182.71119 0.99893
1181.28279 0.99910
1179.85440 0.99924
1178.42600 0.99937
1176.99761 0.99949
1175.56921 0.99960
1174.14082 0.99970
1172.71242 0.99979
1171.28402 0.99986
1169.85563 0.99992
1168.42723 0.99996
1166.99884 0.99999
1165.57044 1.00000
1164.14205 1.00000
1162.71365 0.99998
1161.28526 0.99995
1159.85686 0.99988
1158.42847 0.99979
1157.00007 0.99966
1155.57168 0.99949
1154.14328 0.99927
1152.71489 0.99899
1151.28649 0.99865
1149.85810 0.99824
1148.42970 0.99777
1147.00131 0.99724
1145.57291 0.99668
1144.14452 0.99610
1142.71612 0.99551
1141.28773 0.99495
1139.85933 0.99443
1138.43094 0.99396
1137.00254 0.99355
1135.57415 0.99320
1134.14575 0.99293
1132.71736 0.99271
1131.28896 0.99253
1129.86057 0.99238
1128.43217 0.99222
1127.00378 0.99204
1125.57538 0.99182
1124.14698 0.99154
1122.71859 0.99119
1121.29019 0.99076
1119.86180 0.99023
1118.43340 0.98962
1117.00501 0.98892
1115.57661 0.98814
1114.14822 0.98730
1112.71982 0.98641
1111.29143 0.98548
1109.86303 0.98454
1108.43464 0.98359
1107.00624 0.98264
1105.57785 0.98169
1104.14945 0.98074
1102.72106 0.97980
1101.29266 0.97884
1099.86427 0.97787
1098.43587 0.97688
1097.00748 0.97587
1095.57908 0.97485
1094.15069 0.97383
1092.72229 0.97284
1091.29390 0.97192
1089.86550 0.97109
1088.43711 0.97040
1087.00871 0.96989
1085.58032 0.96958
1084.15192 0.96949
1082.72353 0.96964
1081.29513 0.97002
1079.86673 0.97061
1078.43834 0.97138
1077.00994 0.97228
1075.58155 0.97327
1074.15315 0.97429
1072.72476 0.97529
1071.29636 0.97624
1069.86797 0.97708
1068.43957 0.97780
1067.01118 0.97836
1065.58278 0.97877
1064.15439 0.97901
1062.72599 0.97910
1061.29760 0.97904
1059.86920 0.97887
1058.44081 0.97860
1057.01241 0.97826
1055.58402 0.97787
1054.15562 0.97747
1052.72723 0.97709
1051.29883 0.97674
1049.87044 0.97646
1048.44204 0.97625
1047.01365 0.97612
1045.58525 0.97608
1044.15686 0.97610
1042.72846 0.97618
1041.30007 0.97631
1039.87167 0.97647
1038.44328 0.97666
1037.01488 0.97685
1035.58649 0.97706
1034.15809 0.97726
1032.72969 0.97746
1031.30130 0.97768
1029.87290 0.97793
1028.44451 0.97821
1027.01611 0.97855
1025.58772 0.97893
1024.15932 0.97936
1022.73093 0.97984
1021.30253 0.98035
1019.87414 0.98089
1018.44574 0.98144
1017.01735 0.98200
1015.58895 0.98256
1014.16056 0.98311
1012.73216 0.98364
1011.30377 0.98415
1009.87537 0.98466
1008.44698 0.98517
1007.01858 0.98571
1005.59019 0.98629
1004.16179 0.98692
1002.73340 0.98761
1001.30500 0.98835
999.87661 0.98916
998.44821 0.99000
997.01982 0.99087
995.59142 0.99175
994.16303 0.99261
992.73463 0.99342
991.30624 0.99417
989.87784 0.99484
988.44945 0.99543
987.02105 0.99593
985.59265 0.99634
984.16426 0.99669
982.73586 0.99699
981.30747 0.99724
979.87907 0.99745
978.45068 0.99765
977.02228 0.99782
975.59389 0.99799
974.16549 0.99815
972.73710 0.99829
971.30870 0.99843
969.88031 0.99854
968.45191 0.99864
967.02352 0.99870
965.59512 0.99874
964.16673 0.99876
962.73833 0.99876
961.30994 0.99874
959.88154 0.99872
958.45315 0.99869
957.02475 0.99867
955.59636 0.99865
954.16796 0.99865
952.73957 0.99866
951.31117 0.99869
949.88278 0.99872
948.45438 0.99876
947.02599 0.99879
945.59759 0.99882
944.16920 0.99883
942.74080 0.99883
941.31241 0.99882
939.88401 0.99880
938.45561 0.99878
937.02722 0.99876
935.59882 0.99875
934.17043 0.99876
932.74203 0.99878
931.31364 0.99882
929.88524 0.99888
928.45685 0.99896
927.02845 0.99904
925.60006 0.99913
924.17166 0.99923
922.74327 0.99933
921.31487 0.99943
919.88648 0.99953
918.45808 0.99962
917.02969 0.99971
915.60129 0.99980
914.17290 0.99988
912.74450 0.99994
911.31611 0.99999
909.88771 1.00000
908.45932 0.99997
907.03092 0.99989
905.60253 0.99975
904.17413 0.99956
902.74574 0.99931
901.31734 0.99901
899.88895 0.99868
898.46055 0.99832
897.03216 0.99795
895.60376 0.99759
894.17537 0.99725
892.74697 0.99696
891.31857 0.99671
889.89018 0.99652
888.46178 0.99637
887.03339 0.99627
885.60499 0.99620
884.17660 0.99617
882.74820 0.99618
881.31981 0.99621
879.89141 0.99627
878.46302 0.99635
877.03462 0.99644
875.60623 0.99655
874.17783 0.99667
872.74944 0.99681
871.32104 0.99695
869.89265 0.99711
868.46425 0.99728
867.03586 0.99746
865.60746 0.99764
864.17907 0.99782
862.75067 0.99800
861.32228 0.99818
859.89388 0.99834
858.46549 0.99850
857.03709 0.99865
855.60870 0.99878
854.18030 0.99889
852.75191 0.99898
851.32351 0.99905
849.89512 0.99910
848.46672 0.99914
847.03833 0.99918
845.60993 0.99922
844.18153 0.99928
842.75314 0.99935
841.32474 0.99943
839.89635 0.99953
838.46795 0.99964
837.03956 0.99974
835.61116 0.99984
834.18277 0.99992
832.75437 0.99998
831.32598 1.00000
829.89758 0.99999
828.46919 0.99993
827.04079 0.99984
825.61240 0.99972
824.18400 0.99957
822.75561 0.99942
821.32721 0.99926
819.89882 0.99911
818.47042 0.99896
817.04203 0.99882
815.61363 0.99868
814.18524 0.99854
812.75684 0.99838
811.32845 0.99823
809.90005 0.99807
808.47166 0.99791
807.04326 0.99776
805.61487 0.99762
804.18647 0.99749
802.75808 0.99740
801.32968 0.99734
799.90129 0.99732
798.47289 0.99735
797.04449 0.99742
795.61610 0.99752
794.18770 0.99764
792.75931 0.99779
791.33091 0.99794
789.90252 0.99810
788.47412 0.99827
787.04573 0.99842
785.61733 0.99857
784.18894 0.99869
782.76054 0.99879
781.33215 0.99887
779.90375 0.99894
778.47536 0.99900
777.04696 0.99903
775.61857 0.99903
774.19017 0.99901
772.76178 0.99896
771.33338 0.99890
769.90499 0.99883
768.47659 0.99874
767.04820 0.99864
765.61980 0.99853
764.19141 0.99840
762.76301 0.99827
761.33462 0.99815
759.90622 0.99804
758.47783 0.99796
757.04943 0.99789
755.62104 0.99782
754.19264 0.99776
752.76425 0.99769
751.33585 0.99763
749.90745 0.99756
748.47906 0.99749
747.05066 0.99743
745.62227 0.99737
744.19387 0.99732
742.76548 0.99729
741.33708 0.99730
739.90869 0.99735
738.48029 0.99744
737.05190 0.99756
735.62350 0.99772
734.19511 0.99788
732.76671 0.99803
731.33832 0.99816
729.90992 0.99826
728.48153 0.99834
727.05313 0.99838
725.62474 0.99839
724.19634 0.99837
722.76795 0.99833
721.33955 0.99829
719.91116 0.99826
718.48276 0.99825
717.05437 0.99827
715.62597 0.99830
714.19758 0.99835
712.76918 0.99839
711.34079 0.99844
709.91239 0.99847
708.48400 0.99848
707.05560 0.99846
705.62721 0.99841
704.19881 0.99832
702.77041 0.99819
701.34202 0.99803
699.91362 0.99783
698.48523 0.99762
697.05683 0.99741
695.62844 0.99720
694.20004 0.99699
692.77165 0.99681
691.34325 0.99665
689.91486 0.99652
688.48646 0.99643
687.05807 0.99635
685.62967 0.99627
684.20128 0.99617
682.77288 0.99605
681.34449 0.99589
679.91609 0.99572
678.48770 0.99554
677.05930 0.99535
675.63091 0.99518
674.20251 0.99503
672.77412 0.99492
671.34572 0.99486
669.91733 0.99487
668.48893 0.99496
667.06054 0.99513
665.63214 0.99533
664.20375 0.99554
662.77535 0.99573
661.34696 0.99587
659.91856 0.99598
658.49017 0.99606
657.06177 0.99611
655.63337 0.99614
654.20498 0.99616
652.77658 0.99617
651.34819 0.99620
649.91979 0.99625
648.49140 0.99634
647.06300 0.99649
645.63461 0.99670
644.20621 0.99695
642.77782 0.99722
641.34942 0.99749
639.92103 0.99774
638.49263 0.99798
637.06424 0.99820
635.63584 0.99839
634.20745 0.99855
632.77905 0.99866
631.35066 0.99873
629.92226 0.99877
628.49387 0.99877
627.06547 0.99876
625.63708 0.99875
624.20868 0.99874
622.78029 0.99875
621.35189 0.99878
619.92350 0.99883
618.49510 0.99889
617.06671 0.99897
615.63831 0.99905
614.20992 0.99914
612.78152 0.99925
611.35313 0.99935
609.92473 0.99943
608.49633 0.99950
607.06794 0.99954
605.63954 0.99955
604.21115 0.99952
602.78275 0.99946
601.35436 0.99935
599.92596 0.99921
598.49757 0.99903
597.06917 0.99883
595.64078 0.99861
594.21238 0.99839
592.78399 0.99820
591.35559 0.99806
589.92720 0.99798
588.49880 0.99794
587.07041 0.99796
585.64201 0.99803
584.21362 0.99813
582.78522 0.99824
581.35683 0.99834
579.92843 0.99843
578.50004 0.99850
577.07164 0.99856
575.64325 0.99860
574.21485 0.99863
572.78646 0.99867
571.35806 0.99873
569.92967 0.99882
568.50127 0.99891
567.07288 0.99900
565.64448 0.99908
564.21609 0.99914
562.78769 0.99918
561.35929 0.99918
559.93090 0.99914
558.50250 0.99906
557.07411 0.99896
555.64571 0.99888
554.21732 0.99884
552.78892 0.99884
551.36053 0.99890
549.93213 0.99899
548.50374 0.99911
547.07534 0.99923
545.64695 0.99933
544.21855 0.99941
542.79016 0.99948
541.36176 0.99951
539.93337 0.99952
538.50497 0.99948
537.07658 0.99943
535.64818 0.99939
534.21979 0.99937
532.79139 0.99939
531.36300 0.99944
529.93460 0.99951
528.50621 0.99959
527.07781 0.99964
525.64942 0.99963
524.22102 0.99958
522.79263 0.99950
521.36423 0.99937
519.93584 0.99920
518.50744 0.99901
517.07905 0.99881
515.65065 0.99861
514.22225 0.99844
512.79386 0.99827
511.36546 0.99812
509.93707 0.99798
508.50867 0.99787
507.08028 0.99779
505.65188 0.99774
504.22349 0.99769
502.79509 0.99768
501.36670 0.99770
499.93830 0.99775
498.50991 0.99782
497.08151 0.99792
495.65312 0.99805
494.22472 0.99819
492.79633 0.99830
491.36793 0.99835
489.93954 0.99834
488.51114 0.99828
487.08275 0.99820
485.65435 0.99811
484.22596 0.99802
482.79756 0.99792
481.36917 0.99783
479.94077 0.99777
478.51238 0.99775
477.08398 0.99776
475.65559 0.99778
474.22719 0.99781
472.79880 0.99784
471.37040 0.99783
469.94201 0.99777
468.51361 0.99766
467.08521 0.99752
465.65682 0.99733
464.22842 0.99710
462.80003 0.99680
461.37163 0.99645
459.94324 0.99604
458.51484 0.99559
457.08645 0.99515
455.65805 0.99471
454.22966 0.99429
452.80126 0.99393
451.37287 0.99367
449.94447 0.99354
448.51608 0.99353
447.08768 0.99360
445.65929 0.99375
444.23089 0.99395
442.80250 0.99422
441.37410 0.99454
439.94571 0.99492
438.51731 0.99532
437.08892 0.99574
435.66052 0.99618
434.23213 0.99668
432.80373 0.99723
431.37534 0.99782
429.94694 0.99844
428.51855 0.99902
427.09015 0.99951
425.66176 0.99982
424.23336 0.99993
422.80497 1.00000
421.37657 0.99997
419.94817 0.99985
418.51978 0.99966
417.09138 0.99944
415.66299 0.99921
414.23459 0.99900
412.80620 0.99888
411.37780 0.99886
409.94941 0.99901
408.52101 0.99915
407.09262 0.99929
405.66422 0.99943
404.23583 0.99957
402.80743 0.99972
401.37904 0.99986
399.95064 1.00000
