3998.07803 0.99992
3996.64964 0.99993
3995.22124 0.99994
3993.79285 0.99995
3992.36445 0.99996
3990.93605 0.99997
3989.50766 0.99998
3988.07926 0.99999
3986.65087 1.00000
3985.22247 0.99997
3983.79408 0.99993
3982.36568 0.99989
3980.93729 0.99985
3979.50889 0.99982
3978.08050 0.99979
3976.65210 0.99977
3975.22371 0.99976
3973.79531 0.99977
3972.36692 0.99977
3970.93852 0.99978
3969.51013 0.99979
3968.08173 0.99979
3966.65334 0.99978
3965.22494 0.99977
3963.79655 0.99975
3962.36815 0.99973
3960.93976 0.99969
3959.51136 0.99965
3958.08297 0.99962
3956.65457 0.99959
3955.22618 0.99956
3953.79778 0.99953
3952.36939 0.99950
3950.94099 0.99947
3949.51260 0.99943
3948.08420 0.99939
3946.65581 0.99934
3945.22741 0.99929
3943.79901 0.99923
3942.37062 0.99917
3940.94222 0.99911
3939.51383 0.99906
3938.08543 0.99902
3936.65704 0.99900
3935.22864 0.99899
3933.80025 0.99900
3932.37185 0.99901
3930.94346 0.99903
3929.51506 0.99905
3928.08667 0.99907
3926.65827 0.99908
3925.22988 0.99907
3923.80148 0.99902
3922.37309 0.99895
3920.94469 0.99885
3919.51630 0.99875
3918.08790 0.99865
3916.65951 0.99856
3915.23111 0.99851
3913.80272 0.99848
3912.37432 0.99850
3910.94593 0.99855
3909.51753 0.99864
3908.08914 0.99875
3906.66074 0.99888
3905.23235 0.99901
3903.80395 0.99911
3902.37556 0.99915
3900.94716 0.99915
3899.51877 0.99909
3898.09037 0.99900
3896.66197 0.99890
3895.23358 0.99880
3893.80518 0.99871
3892.37679 0.99862
3890.94839 0.99855
3889.52000 0.99850
3888.09160 0.99846
3886.66321 0.99845
3885.23481 0.99845
3883.80642 0.99846
3882.37802 0.99848
3880.94963 0.99849
3879.52123 0.99851
3878.09284 0.99854
3876.66444 0.99859
3875.23605 0.99866
3873.80765 0.99873
3872.37926 0.99880
3870.95086 0.99886
3869.52247 0.99890
3868.09407 0.99894
3866.66568 0.99897
3865.23728 0.99900
3863.80889 0.99903
3862.38049 0.99905
3860.95210 0.99906
3859.52370 0.99907
3858.09531 0.99908
3856.66691 0.99910
3855.23852 0.99912
3853.81012 0.99913
3852.38173 0.99912
3850.95333 0.99908
3849.52493 0.99904
3848.09654 0.99901
3846.66814 0.99900
3845.23975 0.99902
3843.81135 0.99907
3842.38296 0.99911
3840.95456 0.99914
3839.52617 0.99914
3838.09777 0.99912
3836.66938 0.99908
3835.24098 0.99902
3833.81259 0.99897
3832.38419 0.99891
3830.95580 0.99886
3829.52740 0.99883
3828.09901 0.99881
3826.67061 0.99883
3825.24222 0.99886
3823.81382 0.99890
3822.38543 0.99893
3820.95703 0.99893
3819.52864 0.99887
3818.10024 0.99876
3816.67185 0.99861
3815.24345 0.99845
3813.81506 0.99830
3812.38666 0.99818
3810.95827 0.99811
3809.52987 0.99809
3808.10148 0.99813
3806.67308 0.99818
3805.24469 0.99825
3803.81629 0.99830
3802.38789 0.99832
3800.95950 0.99829
3799.53110 0.99820
3798.10271 0.99806
3796.67431 0.99787
3795.24592 0.99767
3793.81752 0.99748
3792.38913 0.99732
3790.96073 0.99720
3789.53234 0.99714
3788.10394 0.99712
3786.67555 0.99713
3785.24715 0.99717
3783.81876 0.99722
3782.39036 0.99727
3780.96197 0.99730
3779.53357 0.99731
3778.10518 0.99730
3776.67678 0.99728
3775.24839 0.99727
3773.81999 0.99726
3772.39160 0.99727
3770.96320 0.99729
3769.53481 0.99731
3768.10641 0.99733
3766.67802 0.99737
3765.24962 0.99744
3763.82123 0.99754
3762.39283 0.99768
3760.96444 0.99786
3759.53604 0.99807
3758.10765 0.99830
3756.67925 0.99854
3755.25085 0.99876
3753.82246 0.99898
3752.39406 0.99917
3750.96567 0.99931
3749.53727 0.99936
3748.10888 0.99933
3746.68048 0.99920
3745.25209 0.99900
3743.82369 0.99874
3742.39530 0.99844
3740.96690 0.99812
3739.53851 0.99779
3738.11011 0.99747
3736.68172 0.99716
3735.25332 0.99687
3733.82493 0.99659
3732.39653 0.99635
3730.96814 0.99614
3729.53974 0.99600
3728.11135 0.99591
3726.68295 0.99588
3725.25456 0.99591
3723.82616 0.99599
3722.39777 0.99611
3720.96937 0.99625
3719.54098 0.99640
3718.11258 0.99654
3716.68419 0.99668
3715.25579 0.99679
3713.82740 0.99685
3712.39900 0.99685
3710.97061 0.99677
3709.54221 0.99661
3708.11381 0.99642
3706.68542 0.99623
3705.25702 0.99607
3703.82863 0.99597
3702.40023 0.99592
3700.97184 0.99593
3699.54344 0.99599
3698.11505 0.99612
3696.68665 0.99629
3695.25826 0.99651
3693.82986 0.99675
3692.40147 0.99700
3690.97307 0.99723
3689.54468 0.99742
3688.11628 0.99756
3686.68789 0.99767
3685.25949 0.99779
3683.83110 0.99794
3682.40270 0.99812
3680.97431 0.99834
3679.54591 0.99856
3678.11752 0.99879
3676.68912 0.99898
3675.26073 0.99913
3673.83233 0.99923
3672.40394 0.99927
3670.97554 0.99924
3669.54715 0.99912
3668.11875 0.99893
3666.69036 0.99871
3665.26196 0.99848
3663.83357 0.99831
3662.40517 0.99822
3660.97677 0.99823
3659.54838 0.99833
3658.11998 0.99850
3656.69159 0.99874
3655.26319 0.99901
3653.83480 0.99930
3652.40640 0.99956
3650.97801 0.99978
3649.54961 0.99990
3648.12122 0.99991
3646.69282 0.99980
3645.26443 0.99961
3643.83603 0.99939
3642.40764 0.99916
3640.97924 0.99893
3639.55085 0.99873
3638.12245 0.99855
3636.69406 0.99841
3635.26566 0.99832
3633.83727 0.99828
3632.40887 0.99829
3630.98048 0.99832
3629.55208 0.99837
3628.12369 0.99843
3626.69529 0.99849
3625.26690 0.99857
3623.83850 0.99869
3622.41011 0.99885
3620.98171 0.99905
3619.55332 0.99925
3618.12492 0.99944
3616.69653 0.99958
3615.26813 0.99968
3613.83973 0.99972
3612.41134 0.99971
3610.98294 0.99964
3609.55455 0.99951
3608.12615 0.99932
3606.69776 0.99910
3605.26936 0.99889
3603.84097 0.99871
3602.41257 0.99858
3600.98418 0.99851
3599.55578 0.99849
3598.12739 0.99852
3596.69899 0.99856
3595.27060 0.99863
3593.84220 0.99869
3592.41381 0.99875
3590.98541 0.99881
3589.55702 0.99884
3588.12862 0.99885
3586.70023 0.99881
3585.27183 0.99873
3583.84344 0.99864
3582.41504 0.99855
3580.98665 0.99848
3579.55825 0.99842
3578.12986 0.99840
3576.70146 0.99841
3575.27307 0.99845
3573.84467 0.99852
3572.41628 0.99860
3570.98788 0.99870
3569.55949 0.99881
3568.13109 0.99891
3566.70269 0.99898
3565.27430 0.99901
3563.84590 0.99901
3562.41751 0.99898
3560.98911 0.99895
3559.56072 0.99891
3558.13232 0.99887
3556.70393 0.99884
3555.27553 0.99882
3553.84714 0.99880
3552.41874 0.99878
3550.99035 0.99876
3549.56195 0.99873
3548.13356 0.99868
3546.70516 0.99863
3545.27677 0.99856
3543.84837 0.99848
3542.41998 0.99840
3540.99158 0.99834
3539.56319 0.99831
3538.13479 0.99830
3536.70640 0.99833
3535.27800 0.99839
3533.84961 0.99848
3532.42121 0.99859
3530.99282 0.99869
3529.56442 0.99879
3528.13603 0.99886
3526.70763 0.99890
3525.27924 0.99891
3523.85084 0.99889
3522.42245 0.99883
3520.99405 0.99874
3519.56565 0.99865
3518.13726 0.99855
3516.70886 0.99846
3515.28047 0.99840
3513.85207 0.99836
3512.42368 0.99836
3510.99528 0.99838
3509.56689 0.99843
3508.13849 0.99849
3506.71010 0.99855
3505.28170 0.99861
3503.85331 0.99866
3502.42491 0.99869
3500.99652 0.99869
3499.56812 0.99867
3498.13973 0.99863
3496.71133 0.99859
3495.28294 0.99856
3493.85454 0.99853
3492.42615 0.99852
3490.99775 0.99852
3489.56936 0.99853
3488.14096 0.99857
3486.71257 0.99861
3485.28417 0.99865
3483.85578 0.99870
3482.42738 0.99873
3480.99899 0.99874
3479.57059 0.99874
3478.14220 0.99872
3476.71380 0.99871
3475.28541 0.99869
3473.85701 0.99868
3472.42861 0.99867
3471.00022 0.99867
3469.57182 0.99868
3468.14343 0.99870
3466.71503 0.99872
3465.28664 0.99875
3463.85824 0.99878
3462.42985 0.99882
3461.00145 0.99885
3459.57306 0.99890
3458.14466 0.99894
3456.71627 0.99900
3455.28787 0.99907
3453.85948 0.99914
3452.43108 0.99922
3451.00269 0.99930
3449.57429 0.99939
3448.14590 0.99946
3446.71750 0.99952
3445.28911 0.99956
3443.86071 0.99957
3442.43232 0.99955
3441.00392 0.99952
3439.57553 0.99948
3438.14713 0.99945
3436.71874 0.99942
3435.29034 0.99940
3433.86195 0.99939
3432.43355 0.99940
3431.00516 0.99943
3429.57676 0.99947
3428.14837 0.99953
3426.71997 0.99960
3425.29157 0.99967
3423.86318 0.99973
3422.43478 0.99979
3421.00639 0.99984
3419.57799 0.99988
3418.14960 0.99991
3416.72120 0.99995
3415.29281 0.99998
3413.86441 1.00001
3412.43602 1.00003
3411.00762 1.00003
3409.57923 1.00003
3408.15083 1.00002
3406.72244 1.00000
3405.29404 0.99998
3403.86565 0.99996
3402.43725 0.99994
3401.00886 0.99992
3399.58046 0.99992
3398.15207 0.99993
3396.72367 0.99994
3395.29528 0.99996
3393.86688 0.99998
3392.43849 0.99999
3391.01009 1.00000
3389.58170 1.00000
3388.15330 0.99999
3386.72491 0.99998
3385.29651 0.99995
3383.86812 0.99991
3382.43972 0.99987
3381.01133 0.99984
3379.58293 0.99982
3378.15453 0.99982
3376.72614 0.99983
3375.29774 0.99985
3373.86935 0.99987
3372.44095 0.99991
3371.01256 0.99994
3369.58416 0.99997
3368.15577 0.99999
3366.72737 1.00000
3365.29898 1.00000
3363.87058 0.99998
3362.44219 0.99995
3361.01379 0.99990
3359.58540 0.99985
3358.15700 0.99979
3356.72861 0.99973
3355.30021 0.99968
3353.87182 0.99963
3352.44342 0.99959
3351.01503 0.99957
3349.58663 0.99956
3348.15824 0.99956
3346.72984 0.99957
3345.30145 0.99958
3343.87305 0.99958
3342.44466 0.99957
3341.01626 0.99956
3339.58787 0.99955
3338.15947 0.99952
3336.73108 0.99948
3335.30268 0.99944
3333.87428 0.99939
3332.44589 0.99934
3331.01749 0.99930
3329.58910 0.99927
3328.16070 0.99925
3326.73231 0.99922
3325.30391 0.99920
3323.87552 0.99917
3322.44712 0.99913
3321.01873 0.99910
3319.59033 0.99906
3318.16194 0.99902
3316.73354 0.99898
3315.30515 0.99895
3313.87675 0.99892
3312.44836 0.99889
3311.01996 0.99886
3309.59157 0.99884
3308.16317 0.99883
3306.73478 0.99882
3305.30638 0.99880
3303.87799 0.99878
3302.44959 0.99876
3301.02120 0.99874
3299.59280 0.99873
3298.16441 0.99871
3296.73601 0.99870
3295.30762 0.99869
3293.87922 0.99868
3292.45083 0.99866
3291.02243 0.99864
3289.59404 0.99861
3288.16564 0.99857
3286.73724 0.99852
3285.30885 0.99847
3283.88045 0.99841
3282.45206 0.99836
3281.02366 0.99831
3279.59527 0.99827
3278.16687 0.99824
3276.73848 0.99822
3275.31008 0.99820
3273.88169 0.99819
3272.45329 0.99818
3271.02490 0.99817
3269.59650 0.99816
3268.16811 0.99816
3266.73971 0.99816
3265.31132 0.99816
3263.88292 0.99818
3262.45453 0.99821
3261.02613 0.99826
3259.59774 0.99834
3258.16934 0.99843
3256.74095 0.99853
3255.31255 0.99864
3253.88416 0.99876
3252.45576 0.99886
3251.02737 0.99895
3249.59897 0.99903
3248.17058 0.99910
3246.74218 0.99916
3245.31379 0.99921
3243.88539 0.99924
3242.45700 0.99925
3241.02860 0.99926
3239.60020 0.99926
3238.17181 0.99926
3236.74341 0.99925
3235.31502 0.99925
3233.88662 0.99924
3232.45823 0.99923
3231.02983 0.99921
3229.60144 0.99920
3228.17304 0.99921
3226.74465 0.99923
3225.31625 0.99927
3223.88786 0.99933
3222.45946 0.99939
3221.03107 0.99946
3219.60267 0.99953
3218.17428 0.99958
3216.74588 0.99962
3215.31749 0.99964
3213.88909 0.99965
3212.46070 0.99964
3211.03230 0.99961
3209.60391 0.99955
3208.17551 0.99949
3206.74712 0.99941
3205.31872 0.99932
3203.89033 0.99924
3202.46193 0.99917
3201.03354 0.99911
3199.60514 0.99906
3198.17675 0.99902
3196.74835 0.99899
3195.31996 0.99897
3193.89156 0.99896
3192.46316 0.99897
3191.03477 0.99900
3189.60637 0.99903
3188.17798 0.99907
3186.74958 0.99911
3185.32119 0.99913
3183.89279 0.99913
3182.46440 0.99911
3181.03600 0.99907
3179.60761 0.99902
3178.17921 0.99896
3176.75082 0.99888
3175.32242 0.99879
3173.89403 0.99870
3172.46563 0.99861
3171.03724 0.99853
3169.60884 0.99847
3168.18045 0.99842
3166.75205 0.99839
3165.32366 0.99836
3163.89526 0.99833
3162.46687 0.99830
3161.03847 0.99827
3159.61008 0.99823
3158.18168 0.99819
3156.75329 0.99815
3155.32489 0.99812
3153.89650 0.99808
3152.46810 0.99806
3151.03971 0.99804
3149.61131 0.99804
3148.18292 0.99805
3146.75452 0.99808
3145.32612 0.99811
3143.89773 0.99815
3142.46933 0.99819
3141.04094 0.99822
3139.61254 0.99825
3138.18415 0.99828
3136.75575 0.99828
3135.32736 0.99828
3133.89896 0.99826
3132.47057 0.99823
3131.04217 0.99820
3129.61378 0.99817
3128.18538 0.99815
3126.75699 0.99812
3125.32859 0.99810
3123.90020 0.99809
3122.47180 0.99808
3121.04341 0.99807
3119.61501 0.99807
3118.18662 0.99806
3116.75822 0.99806
3115.32983 0.99806
3113.90143 0.99806
3112.47304 0.99805
3111.04464 0.99804
3109.61625 0.99804
3108.18785 0.99802
3106.75946 0.99801
3105.33106 0.99800
3103.90267 0.99798
3102.47427 0.99796
3101.04588 0.99795
3099.61748 0.99793
3098.18908 0.99793
3096.76069 0.99793
3095.33229 0.99793
3093.90390 0.99795
3092.47550 0.99797
3091.04711 0.99800
3089.61871 0.99803
3088.19032 0.99807
3086.76192 0.99811
3085.33353 0.99814
3083.90513 0.99817
3082.47674 0.99819
3081.04834 0.99820
3079.61995 0.99820
3078.19155 0.99820
3076.76316 0.99820
3075.33476 0.99820
3073.90637 0.99820
3072.47797 0.99820
3071.04958 0.99821
3069.62118 0.99822
3068.19279 0.99824
3066.76439 0.99827
3065.33600 0.99830
3063.90760 0.99833
3062.47921 0.99837
3061.05081 0.99840
3059.62242 0.99843
3058.19402 0.99846
3056.76563 0.99849
3055.33723 0.99852
3053.90884 0.99856
3052.48044 0.99859
3051.05204 0.99863
3049.62365 0.99868
3048.19525 0.99873
3046.76686 0.99879
3045.33846 0.99885
3043.91007 0.99891
3042.48167 0.99897
3041.05328 0.99902
3039.62488 0.99907
3038.19649 0.99912
3036.76809 0.99915
3035.33970 0.99918
3033.91130 0.99921
3032.48291 0.99923
3031.05451 0.99925
3029.62612 0.99926
3028.19772 0.99928
3026.76933 0.99931
3025.34093 0.99934
3023.91254 0.99938
3022.48414 0.99942
3021.05575 0.99946
3019.62735 0.99949
3018.19896 0.99952
3016.77056 0.99955
3015.34217 0.99958
3013.91377 0.99960
3012.48538 0.99962
3011.05698 0.99964
3009.62859 0.99965
3008.20019 0.99967
3006.77180 0.99969
3005.34340 0.99971
3003.91500 0.99974
3002.48661 0.99977
3001.05821 0.99979
2999.62982 0.99980
2998.20142 0.99979
2996.77303 0.99977
2995.34463 0.99973
2993.91624 0.99968
2992.48784 0.99961
2991.05945 0.99953
2989.63105 0.99943
2988.20266 0.99933
2986.77426 0.99922
2985.34587 0.99911
2983.91747 0.99900
2982.48908 0.99888
2981.06068 0.99874
2979.63229 0.99860
2978.20389 0.99843
2976.77550 0.99825
2975.34710 0.99804
2973.91871 0.99782
2972.49031 0.99759
2971.06192 0.99735
2969.63352 0.99710
2968.20513 0.99685
2966.77673 0.99662
2965.34834 0.99639
2963.91994 0.99619
2962.49155 0.99600
2961.06315 0.99583
2959.63476 0.99567
2958.20636 0.99552
2956.77796 0.99537
2955.34957 0.99523
2953.92117 0.99509
2952.49278 0.99496
2951.06438 0.99483
2949.63599 0.99471
2948.20759 0.99460
2946.77920 0.99450
2945.35080 0.99441
2943.92241 0.99434
2942.49401 0.99429
2941.06562 0.99427
2939.63722 0.99429
2938.20883 0.99433
2936.78043 0.99440
2935.35204 0.99448
2933.92364 0.99459
2932.49525 0.99472
2931.06685 0.99487
2929.63846 0.99502
2928.21006 0.99517
2926.78167 0.99532
2925.35327 0.99547
2923.92488 0.99560
2922.49648 0.99571
2921.06809 0.99581
2919.63969 0.99590
2918.21130 0.99598
2916.78290 0.99604
2915.35451 0.99609
2913.92611 0.99613
2912.49772 0.99616
2911.06932 0.99617
2909.64092 0.99618
2908.21253 0.99617
2906.78413 0.99616
2905.35574 0.99613
2903.92734 0.99610
2902.49895 0.99606
2901.07055 0.99603
2899.64216 0.99598
2898.21376 0.99595
2896.78537 0.99592
2895.35697 0.99590
2893.92858 0.99589
2892.50018 0.99591
2891.07179 0.99594
2889.64339 0.99599
2888.21500 0.99606
2886.78660 0.99613
2885.35821 0.99621
2883.92981 0.99630
2882.50142 0.99639
2881.07302 0.99648
2879.64463 0.99657
2878.21623 0.99665
2876.78784 0.99673
2875.35944 0.99681
2873.93105 0.99689
2872.50265 0.99697
2871.07426 0.99705
2869.64586 0.99713
2868.21747 0.99721
2866.78907 0.99728
2865.36068 0.99734
2863.93228 0.99739
2862.50388 0.99744
2861.07549 0.99748
2859.64709 0.99752
2858.21870 0.99755
2856.79030 0.99758
2855.36191 0.99760
2853.93351 0.99763
2852.50512 0.99767
2851.07672 0.99771
2849.64833 0.99776
2848.21993 0.99781
2846.79154 0.99786
2845.36314 0.99791
2843.93475 0.99796
2842.50635 0.99800
2841.07796 0.99804
2839.64956 0.99808
2838.22117 0.99812
2836.79277 0.99817
2835.36438 0.99821
2833.93598 0.99826
2832.50759 0.99831
2831.07919 0.99837
2829.65080 0.99843
2828.22240 0.99849
2826.79401 0.99856
2825.36561 0.99862
2823.93722 0.99868
2822.50882 0.99875
2821.08043 0.99881
2819.65203 0.99887
2818.22364 0.99893
2816.79524 0.99900
2815.36684 0.99905
2813.93845 0.99911
2812.51005 0.99917
2811.08166 0.99921
2809.65326 0.99926
2808.22487 0.99929
2806.79647 0.99932
2805.36808 0.99935
2803.93968 0.99936
2802.51129 0.99938
2801.08289 0.99939
2799.65450 0.99940
2798.22610 0.99941
2796.79771 0.99942
2795.36931 0.99943
2793.94092 0.99944
2792.51252 0.99946
2791.08413 0.99948
2789.65573 0.99951
2788.22734 0.99954
2786.79894 0.99958
2785.37055 0.99962
2783.94215 0.99967
2782.51376 0.99972
2781.08536 0.99977
2779.65697 0.99981
2778.22857 0.99985
2776.80018 0.99988
2775.37178 0.99990
2773.94339 0.99992
2772.51499 0.99991
2771.08660 0.99990
2769.65820 0.99988
2768.22980 0.99986
2766.80141 0.99983
2765.37301 0.99981
2763.94462 0.99978
2762.51622 0.99975
2761.08783 0.99973
2759.65943 0.99972
2758.23104 0.99972
2756.80264 0.99973
2755.37425 0.99974
2753.94585 0.99976
2752.51746 0.99979
2751.08906 0.99981
2749.66067 0.99985
2748.23227 0.99988
2746.80388 0.99991
2745.37548 0.99995
2743.94709 0.99997
2742.51869 0.99999
2741.09030 1.00000
2739.66190 1.00000
2738.23351 1.00000
2736.80511 0.99999
2735.37672 0.99998
2733.94832 0.99996
2732.51993 0.99994
2731.09153 0.99991
2729.66314 0.99989
2728.23474 0.99987
2726.80635 0.99985
2725.37795 0.99985
2723.94956 0.99984
2722.52116 0.99985
2721.09276 0.99985
2719.66437 0.99986
2718.23597 0.99987
2716.80758 0.99989
2715.37918 0.99990
2713.95079 0.99991
2712.52239 0.99992
2711.09400 0.99993
2709.66560 0.99993
2708.23721 0.99992
2706.80881 0.99992
2705.38042 0.99991
2703.95202 0.99990
2702.52363 0.99989
2701.09523 0.99989
2699.66684 0.99988
2698.23844 0.99988
2696.81005 0.99988
2695.38165 0.99988
2693.95326 0.99988
2692.52486 0.99988
2691.09647 0.99988
2689.66807 0.99988
2688.23968 0.99987
2686.81128 0.99987
2685.38289 0.99986
2683.95449 0.99986
2682.52610 0.99985
2681.09770 0.99984
2679.66931 0.99983
2678.24091 0.99982
2676.81252 0.99981
2675.38412 0.99980
2673.95572 0.99979
2672.52733 0.99979
2671.09893 0.99978
2669.67054 0.99977
2668.24214 0.99976
2666.81375 0.99975
2665.38535 0.99974
2663.95696 0.99973
2662.52856 0.99972
2661.10017 0.99972
2659.67177 0.99971
2658.24338 0.99971
2656.81498 0.99971
2655.38659 0.99971
2653.95819 0.99972
2652.52980 0.99973
2651.10140 0.99975
2649.67301 0.99976
2648.24461 0.99977
2646.81622 0.99977
2645.38782 0.99977
2643.95943 0.99977
2642.53103 0.99977
2641.10264 0.99976
2639.67424 0.99976
2638.24585 0.99975
2636.81745 0.99974
2635.38906 0.99974
2633.96066 0.99975
2632.53227 0.99977
2631.10387 0.99979
2629.67548 0.99981
2628.24708 0.99984
2626.81868 0.99986
2625.39029 0.99989
2623.96189 0.99990
2622.53350 0.99992
2621.10510 0.99992
2619.67671 0.99992
2618.24831 0.99992
2616.81992 0.99991
2615.39152 0.99990
2613.96313 0.99989
2612.53473 0.99988
2611.10634 0.99988
2609.67794 0.99989
2608.24955 0.99990
2606.82115 0.99991
2605.39276 0.99993
2603.96436 0.99996
2602.53597 0.99998
2601.10757 0.99999
2599.67918 1.00000
2598.25078 1.00000
2596.82239 1.00000
2595.39399 0.99999
2593.96560 0.99997
2592.53720 0.99995
2591.10881 0.99993
2589.68041 0.99990
2588.25202 0.99987
2586.82362 0.99985
2585.39523 0.99983
2583.96683 0.99982
2582.53843 0.99981
2581.11004 0.99981
2579.68164 0.99982
2578.25325 0.99984
2576.82485 0.99985
2575.39646 0.99988
2573.96806 0.99990
2572.53967 0.99992
2571.11127 0.99994
2569.68288 0.99996
2568.25448 0.99997
2566.82609 0.99997
2565.39769 0.99997
2563.96930 0.99996
2562.54090 0.99995
2561.11251 0.99993
2559.68411 0.99991
2558.25572 0.99988
2556.82732 0.99987
2555.39893 0.99985
2553.97053 0.99983
2552.54214 0.99982
2551.11374 0.99980
2549.68535 0.99978
2548.25695 0.99977
2546.82856 0.99977
2545.40016 0.99977
2543.97177 0.99977
2542.54337 0.99978
2541.11498 0.99979
2539.68658 0.99980
2538.25819 0.99981
2536.82979 0.99982
2535.40139 0.99984
2533.97300 0.99987
2532.54460 0.99989
2531.11621 0.99992
2529.68781 0.99993
2528.25942 0.99995
2526.83102 0.99996
2525.40263 0.99997
2523.97423 0.99998
2522.54584 0.99999
2521.11744 1.00000
2519.68905 1.00000
2518.26065 1.00000
2516.83226 0.99999
2515.40386 0.99998
2513.97547 0.99997
2512.54707 0.99996
2511.11868 0.99995
2509.69028 0.99994
2508.26189 0.99993
2506.83349 0.99992
2505.40510 0.99993
2503.97670 0.99994
2502.54831 0.99996
2501.11991 0.99998
2499.69152 0.99999
2498.26312 1.00000
2496.83473 1.00000
2495.40633 0.99999
2493.97794 0.99998
2492.54954 0.99996
2491.12115 0.99993
2489.69275 0.99989
2488.26435 0.99985
2486.83596 0.99980
2485.40756 0.99977
2483.97917 0.99975
2482.55077 0.99974
2481.12238 0.99974
2479.69398 0.99974
2478.26559 0.99976
2476.83719 0.99978
2475.40880 0.99979
2473.98040 0.99981
2472.55201 0.99983
2471.12361 0.99984
2469.69522 0.99986
2468.26682 0.99987
2466.83843 0.99988
2465.41003 0.99989
2463.98164 0.99990
2462.55324 0.99992
2461.12485 0.99992
2459.69645 0.99993
2458.26806 0.99993
2456.83966 0.99993
2455.41127 0.99992
2453.98287 0.99991
2452.55448 0.99989
2451.12608 0.99986
2449.69769 0.99984
2448.26929 0.99983
2446.84090 0.99982
2445.41250 0.99983
2443.98411 0.99984
2442.55571 0.99987
2441.12731 0.99990
2439.69892 0.99993
2438.27052 0.99996
2436.84213 0.99998
2435.41373 1.00000
2433.98534 1.00001
2432.55694 1.00001
2431.12855 1.00000
2429.70015 0.99999
2428.27176 0.99998
2426.84336 0.99996
2425.41497 0.99994
2423.98657 0.99993
2422.55818 0.99991
2421.12978 0.99990
2419.70139 0.99990
2418.27299 0.99990
2416.84460 0.99990
2415.41620 0.99990
2413.98781 0.99991
2412.55941 0.99991
2411.13102 0.99992
2409.70262 0.99993
2408.27423 0.99995
2406.84583 0.99997
2405.41744 0.99999
2403.98904 1.00000
2402.56065 1.00000
2401.13225 1.00000
2399.70386 0.99999
2398.27546 0.99999
2396.84707 0.99998
2395.41867 0.99997
2393.99027 0.99996
2392.56188 0.99996
2391.13348 0.99995
2389.70509 0.99995
2388.27669 0.99995
2386.84830 0.99995
2385.41990 0.99996
2383.99151 0.99996
2382.56311 0.99997
2381.13472 0.99997
2379.70632 0.99997
2378.27793 0.99997
2376.84953 0.99997
2375.42114 0.99997
2373.99274 0.99998
2372.56435 0.99998
2371.13595 0.99998
2369.70756 0.99998
2368.27916 0.99998
2366.85077 0.99998
2365.42237 0.99998
2363.99398 0.99999
2362.56558 0.99999
2361.13719 0.99999
2359.70879 0.99999
2358.28040 0.99999
2356.85200 0.99999
2355.42361 0.99999
2353.99521 0.99999
2352.56682 0.99999
2351.13842 0.99999
2349.71003 1.00000
2348.28163 1.00000
2346.85323 1.00000
2345.42484 1.00000
2343.99644 1.00000
2342.56805 1.00000
2341.13965 1.00000
2339.71126 1.00000
2338.28286 1.00000
2336.85447 1.00000
2335.42607 1.00000
2333.99768 1.00000
2332.56928 1.00000
2331.14089 1.00000
2329.71249 1.00000
2328.28410 1.00000
2326.85570 1.00000
2325.42731 1.00000
2323.99891 1.00000
2322.57052 1.00000
2321.14212 1.00000
2319.71373 1.00000
2318.28533 1.00000
2316.85694 1.00000
2315.42854 1.00000
2314.00015 1.00000
2312.57175 1.00000
2311.14336 1.00000
2309.71496 1.00000
2308.28657 1.00000
2306.85817 0.99999
2305.42978 0.99999
2304.00138 0.99999
2302.57299 0.99999
2301.14459 0.99999
2299.71619 0.99999
2298.28780 0.99999
2296.85940 0.99999
2295.43101 0.99999
2294.00261 0.99999
2292.57422 0.99998
2291.14582 0.99998
2289.71743 0.99998
2288.28903 0.99998
2286.86064 0.99998
2285.43224 0.99998
2284.00385 0.99998
2282.57545 0.99997
2281.14706 0.99997
2279.71866 0.99997
2278.29027 0.99997
2276.86187 0.99997
2275.43348 0.99996
2274.00508 0.99996
2272.57669 0.99996
2271.14829 0.99996
2269.71990 0.99996
2268.29150 0.99995
2266.86311 0.99995
2265.43471 0.99995
2264.00632 0.99995
2262.57792 0.99994
2261.14953 0.99994
2259.72113 0.99994
2258.29274 0.99994
2256.86434 0.99993
2255.43595 0.99993
2254.00755 0.99993
2252.57915 0.99993
2251.15076 0.99992
2249.72236 0.99992
2248.29397 0.99992
2246.86557 0.99992
2245.43718 0.99991
2244.00878 0.99991
2242.58039 0.99991
2241.15199 0.99990
2239.72360 0.99990
2238.29520 0.99990
2236.86681 0.99989
2235.43841 0.99989
2234.01002 0.99989
2232.58162 0.99988
2231.15323 0.99988
2229.72483 0.99988
2228.29644 0.99987
2226.86804 0.99987
2225.43965 0.99986
2224.01125 0.99986
2222.58286 0.99986
2221.15446 0.99985
2219.72607 0.99985
2218.29767 0.99985
2216.86928 0.99984
2215.44088 0.99984
2214.01249 0.99984
2212.58409 0.99983
2211.15570 0.99983
2209.72730 0.99982
2208.29891 0.99980
2206.87051 0.99979
2205.44211 0.99978
2204.01372 0.99978
2202.58532 0.99979
2201.15693 0.99980
2199.72853 0.99982
2198.30014 0.99984
2196.87174 0.99987
2195.44335 0.99991
2194.01495 0.99995
2192.58656 0.99998
2191.15816 1.00000
2189.72977 0.99999
2188.30137 0.99994
2186.87298 0.99987
2185.44458 0.99979
2184.01619 0.99972
2182.58779 0.99966
2181.15940 0.99961
2179.73100 0.99957
2178.30261 0.99953
2176.87421 0.99949
2175.44582 0.99947
2174.01742 0.99945
2172.58903 0.99944
2171.16063 0.99942
2169.73224 0.99938
2168.30384 0.99932
2166.87545 0.99924
2165.44705 0.99915
2164.01866 0.99909
2162.59026 0.99906
2161.16187 0.99908
2159.73347 0.99914
2158.30507 0.99924
2156.87668 0.99936
2155.44828 0.99949
2154.01989 0.99963
2152.59149 0.99976
2151.16310 0.99987
2149.73470 0.99996
2148.30631 1.00000
2146.87791 1.00000
2145.44952 0.99994
2144.02112 0.99982
2142.59273 0.99966
2141.16433 0.99948
2139.73594 0.99930
2138.30754 0.99912
2136.87915 0.99896
2135.45075 0.99881
2134.02236 0.99870
2132.59396 0.99861
2131.16557 0.99856
2129.73717 0.99855
2128.30878 0.99858
2126.88038 0.99863
2125.45199 0.99870
2124.02359 0.99876
2122.59520 0.99882
2121.16680 0.99887
2119.73841 0.99892
2118.31001 0.99897
2116.88162 0.99902
2115.45322 0.99907
2114.02483 0.99912
2112.59643 0.99916
2111.16803 0.99920
2109.73964 0.99924
2108.31124 0.99927
2106.88285 0.99931
2105.45445 0.99933
2104.02606 0.99935
2102.59766 0.99935
2101.16927 0.99935
2099.74087 0.99935
2098.31248 0.99935
2096.88408 0.99937
2095.45569 0.99939
2094.02729 0.99941
2092.59890 0.99944
2091.17050 0.99946
2089.74211 0.99948
2088.31371 0.99949
2086.88532 0.99949
2085.45692 0.99948
2084.02853 0.99945
2082.60013 0.99940
2081.17174 0.99935
2079.74334 0.99930
2078.31495 0.99924
2076.88655 0.99919
2075.45816 0.99914
2074.02976 0.99909
2072.60137 0.99904
2071.17297 0.99900
2069.74458 0.99898
2068.31618 0.99897
2066.88779 0.99897
2065.45939 0.99898
2064.03099 0.99900
2062.60260 0.99902
2061.17420 0.99904
2059.74581 0.99906
2058.31741 0.99909
2056.88902 0.99912
2055.46062 0.99914
2054.03223 0.99914
2052.60383 0.99912
2051.17544 0.99909
2049.74704 0.99905
2048.31865 0.99900
2046.89025 0.99897
2045.46186 0.99894
2044.03346 0.99892
2042.60507 0.99890
2041.17667 0.99890
2039.74828 0.99890
2038.31988 0.99891
2036.89149 0.99894
2035.46309 0.99897
2034.03470 0.99902
2032.60630 0.99908
2031.17791 0.99914
2029.74951 0.99921
2028.32112 0.99929
2026.89272 0.99939
2025.46433 0.99950
2024.03593 0.99960
2022.60754 0.99969
2021.17914 0.99974
2019.75075 0.99977
2018.32235 0.99977
2016.89395 0.99975
2015.46556 0.99970
2014.03716 0.99963
2012.60877 0.99955
2011.18037 0.99946
2009.75198 0.99937
2008.32358 0.99930
2006.89519 0.99924
2005.46679 0.99922
2004.03840 0.99921
2002.61000 0.99922
2001.18161 0.99923
1999.75321 0.99925
1998.32482 0.99929
1996.89642 0.99935
1995.46803 0.99943
1994.03963 0.99953
1992.61124 0.99964
1991.18284 0.99976
1989.75445 0.99986
1988.32605 0.99994
1986.89766 0.99999
1985.46926 1.00000
1984.04087 0.99998
1982.61247 0.99990
1981.18408 0.99977
1979.75568 0.99962
1978.32729 0.99944
1976.89889 0.99926
1975.47050 0.99909
1974.04210 0.99894
1972.61371 0.99881
1971.18531 0.99871
1969.75691 0.99865
1968.32852 0.99862
1966.90012 0.99860
1965.47173 0.99859
1964.04333 0.99857
1962.61494 0.99855
1961.18654 0.99851
1959.75815 0.99845
1958.32975 0.99839
1956.90136 0.99833
1955.47296 0.99829
1954.04457 0.99825
1952.61617 0.99823
1951.18778 0.99822
1949.75938 0.99823
1948.33099 0.99826
1946.90259 0.99831
1945.47420 0.99838
1944.04580 0.99845
1942.61741 0.99852
1941.18901 0.99858
1939.76062 0.99863
1938.33222 0.99867
1936.90383 0.99869
1935.47543 0.99871
1934.04704 0.99871
1932.61864 0.99870
1931.19025 0.99868
1929.76185 0.99865
1928.33346 0.99863
1926.90506 0.99860
1925.47667 0.99858
1924.04827 0.99857
1922.61987 0.99857
1921.19148 0.99857
1919.76308 0.99857
1918.33469 0.99858
1916.90629 0.99860
1915.47790 0.99861
1914.04950 0.99863
1912.62111 0.99864
1911.19271 0.99864
1909.76432 0.99862
1908.33592 0.99859
1906.90753 0.99855
1905.47913 0.99850
1904.05074 0.99846
1902.62234 0.99842
1901.19395 0.99838
1899.76555 0.99836
1898.33716 0.99834
1896.90876 0.99834
1895.48037 0.99834
1894.05197 0.99835
1892.62358 0.99837
1891.19518 0.99838
1889.76679 0.99839
1888.33839 0.99838
1886.91000 0.99837
1885.48160 0.99835
1884.05321 0.99833
1882.62481 0.99834
1881.19642 0.99836
1879.76802 0.99840
1878.33963 0.99845
1876.91123 0.99852
1875.48283 0.99860
1874.05444 0.99869
1872.62604 0.99877
1871.19765 0.99883
1869.76925 0.99887
1868.34086 0.99887
1866.91246 0.99881
1865.48407 0.99872
1864.05567 0.99860
1862.62728 0.99847
1861.19888 0.99835
1859.77049 0.99825
1858.34209 0.99818
1856.91370 0.99814
1855.48530 0.99814
1854.05691 0.99818
1852.62851 0.99826
1851.20012 0.99835
1849.77172 0.99845
1848.34333 0.99853
1846.91493 0.99858
1845.48654 0.99860
1844.05814 0.99858
1842.62975 0.99854
1841.20135 0.99848
1839.77296 0.99841
1838.34456 0.99836
1836.91617 0.99833
1835.48777 0.99831
1834.05938 0.99832
1832.63098 0.99834
1831.20258 0.99837
1829.77419 0.99840
1828.34579 0.99841
1826.91740 0.99840
1825.48900 0.99836
1824.06061 0.99831
1822.63221 0.99824
1821.20382 0.99816
1819.77542 0.99808
1818.34703 0.99801
1816.91863 0.99796
1815.49024 0.99793
1814.06184 0.99793
1812.63345 0.99794
1811.20505 0.99797
1809.77666 0.99800
1808.34826 0.99805
1806.91987 0.99810
1805.49147 0.99816
1804.06308 0.99823
1802.63468 0.99830
1801.20629 0.99837
1799.77789 0.99843
1798.34950 0.99848
1796.92110 0.99852
1795.49271 0.99854
1794.06431 0.99853
1792.63592 0.99849
1791.20752 0.99841
1789.77913 0.99829
1788.35073 0.99817
1786.92234 0.99807
1785.49394 0.99799
1784.06554 0.99796
1782.63715 0.99796
1781.20875 0.99799
1779.78036 0.99806
1778.35196 0.99816
1776.92357 0.99827
1775.49517 0.99839
1774.06678 0.99850
1772.63838 0.99858
1771.20999 0.99861
1769.78159 0.99857
1768.35320 0.99848
1766.92480 0.99837
1765.49641 0.99825
1764.06801 0.99814
1762.63962 0.99804
1761.21122 0.99798
1759.78283 0.99793
1758.35443 0.99792
1756.92604 0.99795
1755.49764 0.99801
1754.06925 0.99810
1752.64085 0.99822
1751.21246 0.99834
1749.78406 0.99845
1748.35567 0.99853
1746.92727 0.99858
1745.49888 0.99862
1744.07048 0.99865
1742.64209 0.99866
1741.21369 0.99866
1739.78530 0.99864
1738.35690 0.99858
1736.92850 0.99849
1735.50011 0.99836
1734.07171 0.99822
1732.64332 0.99807
1731.21492 0.99793
1729.78653 0.99781
1728.35813 0.99772
1726.92974 0.99767
1725.50134 0.99766
1724.07295 0.99769
1722.64455 0.99777
1721.21616 0.99788
1719.78776 0.99802
1718.35937 0.99815
1716.93097 0.99826
1715.50258 0.99833
1714.07418 0.99839
1712.64579 0.99843
1711.21739 0.99849
1709.78900 0.99856
1708.36060 0.99865
1706.93221 0.99875
1705.50381 0.99885
1704.07542 0.99893
1702.64702 0.99899
1701.21863 0.99904
1699.79023 0.99907
1698.36184 0.99908
1696.93344 0.99905
1695.50505 0.99900
1694.07665 0.99893
1692.64826 0.99886
1691.21986 0.99880
1689.79146 0.99876
1688.36307 0.99874
1686.93467 0.99873
1685.50628 0.99872
1684.07788 0.99867
1682.64949 0.99857
1681.22109 0.99843
1679.79270 0.99827
1678.36430 0.99811
1676.93591 0.99795
1675.50751 0.99778
1674.07912 0.99760
1672.65072 0.99739
1671.22233 0.99718
1669.79393 0.99696
1668.36554 0.99674
1666.93714 0.99652
1665.50875 0.99633
1664.08035 0.99619
1662.65196 0.99610
1661.22356 0.99608
1659.79517 0.99613
1658.36677 0.99627
1656.93838 0.99648
1655.50998 0.99674
1654.08159 0.99704
1652.65319 0.99733
1651.22480 0.99759
1649.79640 0.99781
1648.36801 0.99798
1646.93961 0.99809
1645.51122 0.99815
1644.08282 0.99817
1642.65442 0.99819
1641.22603 0.99822
1639.79763 0.99829
1638.36924 0.99839
1636.94084 0.99851
1635.51245 0.99865
1634.08405 0.99879
1632.65566 0.99894
1631.22726 0.99910
1629.79887 0.99927
1628.37047 0.99944
1626.94208 0.99959
1625.51368 0.99973
1624.08529 0.99984
1622.65689 0.99992
1621.22850 0.99996
1619.80010 0.99999
1618.37171 1.00000
1616.94331 1.00000
1615.51492 0.99996
1614.08652 0.99987
1612.65813 0.99975
1611.22973 0.99962
1609.80134 0.99950
1608.37294 0.99938
1606.94455 0.99928
1605.51615 0.99919
1604.08776 0.99911
1602.65936 0.99904
1601.23097 0.99898
1599.80257 0.99893
1598.37418 0.99888
1596.94578 0.99882
1595.51738 0.99874
1594.08899 0.99866
1592.66059 0.99856
1591.23220 0.99846
1589.80380 0.99838
1588.37541 0.99831
1586.94701 0.99827
1585.51862 0.99826
1584.09022 0.99827
1582.66183 0.99832
1581.23343 0.99839
1579.80504 0.99846
1578.37664 0.99853
1576.94825 0.99858
1575.51985 0.99862
1574.09146 0.99863
1572.66306 0.99864
1571.23467 0.99864
1569.80627 0.99866
1568.37788 0.99868
1566.94948 0.99871
1565.52109 0.99875
1564.09269 0.99878
1562.66430 0.99878
1561.23590 0.99875
1559.80751 0.99868
1558.37911 0.99856
1556.95072 0.99841
1555.52232 0.99824
1554.09393 0.99808
1552.66553 0.99795
1551.23714 0.99789
1549.80874 0.99791
1548.38034 0.99801
1546.95195 0.99818
1545.52355 0.99840
1544.09516 0.99864
1542.66676 0.99886
1541.23837 0.99901
1539.80997 0.99907
1538.38158 0.99904
1536.95318 0.99896
1535.52479 0.99884
1534.09639 0.99873
1532.66800 0.99864
1531.23960 0.99860
1529.81121 0.99861
1528.38281 0.99867
1526.95442 0.99878
1525.52602 0.99893
1524.09763 0.99912
1522.66923 0.99933
1521.24084 0.99953
1519.81244 0.99969
1518.38405 0.99980
1516.95565 0.99987
1515.52726 0.99990
1514.09886 0.99993
1512.67047 0.99995
1511.24207 0.99996
1509.81368 0.99995
1508.38528 0.99988
1506.95689 0.99977
1505.52849 0.99960
1504.10010 0.99942
1502.67170 0.99925
1501.24330 0.99910
1499.81491 0.99898
1498.38651 0.99888
1496.95812 0.99879
1495.52972 0.99870
1494.10133 0.99862
1492.67293 0.99853
1491.24454 0.99845
1489.81614 0.99835
1488.38775 0.99823
1486.95935 0.99806
1485.53096 0.99784
1484.10256 0.99760
1482.67417 0.99736
1481.24577 0.99712
1479.81738 0.99689
1478.38898 0.99665
1476.96059 0.99639
1475.53219 0.99610
1474.10380 0.99578
1472.67540 0.99544
1471.24701 0.99508
1469.81861 0.99474
1468.39022 0.99443
1466.96182 0.99416
1465.53343 0.99393
1464.10503 0.99375
1462.67664 0.99363
1461.24824 0.99356
1459.81985 0.99353
1458.39145 0.99350
1456.96306 0.99344
1455.53466 0.99331
1454.10626 0.99312
1452.67787 0.99287
1451.24947 0.99257
1449.82108 0.99223
1448.39268 0.99187
1446.96429 0.99151
1445.53589 0.99116
1444.10750 0.99084
1442.67910 0.99054
1441.25071 0.99028
1439.82231 0.99005
1438.39392 0.98984
1436.96552 0.98964
1435.53713 0.98943
1434.10873 0.98921
1432.68034 0.98898
1431.25194 0.98877
1429.82355 0.98857
1428.39515 0.98839
1426.96676 0.98822
1425.53836 0.98808
1424.10997 0.98795
1422.68157 0.98783
1421.25318 0.98774
1419.82478 0.98765
1418.39639 0.98757
1416.96799 0.98749
1415.53960 0.98742
1414.11120 0.98736
1412.68281 0.98734
1411.25441 0.98735
1409.82602 0.98742
1408.39762 0.98754
1406.96922 0.98771
1405.54083 0.98794
1404.11243 0.98821
1402.68404 0.98851
1401.25564 0.98885
1399.82725 0.98919
1398.39885 0.98953
1396.97046 0.98985
1395.54206 0.99013
1394.11367 0.99036
1392.68527 0.99057
1391.25688 0.99075
1389.82848 0.99092
1388.40009 0.99107
1386.97169 0.99123
1385.54330 0.99137
1384.11490 0.99152
1382.68651 0.99166
1381.25811 0.99182
1379.82972 0.99198
1378.40132 0.99214
1376.97293 0.99230
1375.54453 0.99245
1374.11614 0.99257
1372.68774 0.99267
1371.25935 0.99275
1369.83095 0.99281
1368.40256 0.99286
1366.97416 0.99291
1365.54577 0.99294
1364.11737 0.99296
1362.68898 0.99296
1361.26058 0.99293
1359.83218 0.99288
1358.40379 0.99283
1356.97539 0.99277
1355.54700 0.99271
1354.11860 0.99266
1352.69021 0.99262
1351.26181 0.99260
1349.83342 0.99259
1348.40502 0.99260
1346.97663 0.99263
1345.54823 0.99268
1344.11984 0.99274
1342.69144 0.99280
1341.26305 0.99284
1339.83465 0.99285
1338.40626 0.99282
1336.97786 0.99276
1335.54947 0.99267
1334.12107 0.99256
1332.69268 0.99246
1331.26428 0.99235
1329.83589 0.99226
1328.40749 0.99218
1326.97910 0.99212
1325.55070 0.99210
1324.12231 0.99210
1322.69391 0.99213
1321.26552 0.99217
1319.83712 0.99222
1318.40873 0.99227
1316.98033 0.99230
1315.55194 0.99231
1314.12354 0.99232
1312.69514 0.99231
1311.26675 0.99230
1309.83835 0.99228
1308.40996 0.99225
1306.98156 0.99223
1305.55317 0.99221
1304.12477 0.99220
1302.69638 0.99220
1301.26798 0.99221
1299.83959 0.99224
1298.41119 0.99229
1296.98280 0.99235
1295.55440 0.99242
1294.12601 0.99250
1292.69761 0.99260
1291.26922 0.99269
1289.84082 0.99279
1288.41243 0.99288
1286.98403 0.99296
1285.55564 0.99303
1284.12724 0.99310
1282.69885 0.99315
1281.27045 0.99320
1279.84206 0.99323
1278.41366 0.99326
1276.98527 0.99328
1275.55687 0.99328
1274.12848 0.99326
1272.70008 0.99323
1271.27169 0.99317
1269.84329 0.99310
1268.41490 0.99301
1266.98650 0.99291
1265.55810 0.99281
1264.12971 0.99272
1262.70131 0.99265
1261.27292 0.99262
1259.84452 0.99263
1258.41613 0.99268
1256.98773 0.99277
1255.55934 0.99288
1254.13094 0.99301
1252.70255 0.99314
1251.27415 0.99327
1249.84576 0.99339
1248.41736 0.99349
1246.98897 0.99356
1245.56057 0.99361
1244.13218 0.99363
1242.70378 0.99364
1241.27539 0.99363
1239.84699 0.99361
1238.41860 0.99360
1236.99020 0.99358
1235.56181 0.99355
1234.13341 0.99353
1232.70502 0.99350
1231.27662 0.99346
1229.84823 0.99342
1228.41983 0.99338
1226.99144 0.99334
1225.56304 0.99330
1224.13465 0.99325
1222.70625 0.99322
1221.27786 0.99318
1219.84946 0.99317
1218.42106 0.99316
1216.99267 0.99318
1215.56427 0.99322
1214.13588 0.99328
1212.70748 0.99338
1211.27909 0.99351
1209.85069 0.99367
1208.42230 0.99386
1206.99390 0.99408
1205.56551 0.99434
1204.13711 0.99462
1202.70872 0.99493
1201.28032 0.99526
1199.85193 0.99560
1198.42353 0.99595
1196.99514 0.99630
1195.56674 0.99664
1194.13835 0.99698
1192.70995 0.99731
1191.28156 0.99762
1189.85316 0.99791
1188.42477 0.99818
1186.99637 0.99842
1185.56798 0.99863
1184.13958 0.99881
1182.71119 0.99897
1181.28279 0.99910
1179.85440 0.99921
1178.42600 0.99931
1176.99761 0.99940
1175.56921 0.99947
1174.14082 0.99955
1172.71242 0.99963
1171.28402 0.99970
1169.85563 0.99978
1168.42723 0.99985
1166.99884 0.99991
1165.57044 0.99996
1164.14205 0.99999
1162.71365 1.00000
1161.28526 1.00000
1159.85686 0.99997
1158.42847 0.99990
1157.00007 0.99979
1155.57168 0.99964
1154.14328 0.99944
1152.71489 0.99919
1151.28649 0.99888
1149.85810 0.99852
1148.42970 0.99810
1147.00131 0.99762
1145.57291 0.99710
1144.14452 0.99654
1142.71612 0.99597
1141.28773 0.99541
1139.85933 0.99486
1138.43094 0.99436
1137.00254 0.99391
1135.57415 0.99353
1134.14575 0.99322
1132.71736 0.99299
1131.28896 0.99282
1129.86057 0.99270
1128.43217 0.99261
1127.00378 0.99252
1125.57538 0.99241
1124.14698 0.99225
1122.71859 0.99203
1121.29019 0.99172
1119.86180 0.99132
1118.43340 0.99082
1117.00501 0.99022
1115.57661 0.98953
1114.14822 0.98876
1112.71982 0.98793
1111.29143 0.98706
1109.86303 0.98616
1108.43464 0.98524
1107.00624 0.98431
1105.57785 0.98339
1104.14945 0.98247
1102.72106 0.98156
1101.29266 0.98064
1099.86427 0.97971
1098.43587 0.97876
1097.00748 0.97781
1095.57908 0.97684
1094.15069 0.97588
1092.72229 0.97494
1091.29390 0.97405
1089.86550 0.97325
1088.43711 0.97257
1087.00871 0.97205
1085.58032 0.97172
1084.15192 0.97160
1082.72353 0.97172
1081.29513 0.97206
1079.86673 0.97262
1078.43834 0.97337
1077.00994 0.97428
1075.58155 0.97529
1074.15315 0.97636
1072.72476 0.97741
1071.29636 0.97842
1069.86797 0.97932
1068.43957 0.98008
1067.01118 0.98068
1065.58278 0.98110
1064.15439 0.98134
1062.72599 0.98141
1061.29760 0.98133
1059.86920 0.98112
1058.44081 0.98081
1057.01241 0.98044
1055.58402 0.98004
1054.15562 0.97964
1052.72723 0.97926
1051.29883 0.97893
1049.87044 0.97866
1048.44204 0.97847
1047.01365 0.97836
1045.58525 0.97831
1044.15686 0.97832
1042.72846 0.97837
1041.30007 0.97846
1039.87167 0.97856
1038.44328 0.97868
1037.01488 0.97880
1035.58649 0.97893
1034.15809 0.97906
1032.72969 0.97921
1031.30130 0.97939
1029.87290 0.97961
1028.44451 0.97989
1027.01611 0.98022
1025.58772 0.98061
1024.15932 0.98106
1022.73093 0.98154
1021.30253 0.98206
1019.87414 0.98258
1018.44574 0.98311
1017.01735 0.98361
1015.58895 0.98409
1014.16056 0.98453
1012.73216 0.98495
1011.30377 0.98534
1009.87537 0.98572
1008.44698 0.98610
1007.01858 0.98652
1005.59019 0.98698
1004.16179 0.98750
1002.73340 0.98809
1001.30500 0.98875
999.87661 0.98947
998.44821 0.99024
997.01982 0.99105
995.59142 0.99188
994.16303 0.99270
992.73463 0.99350
991.30624 0.99425
989.87784 0.99494
988.44945 0.99557
987.02105 0.99612
985.59265 0.99659
984.16426 0.99700
982.73586 0.99736
981.30747 0.99766
979.87907 0.99791
978.45068 0.99812
977.02228 0.99831
975.59389 0.99847
974.16549 0.99862
972.73710 0.99875
971.30870 0.99887
969.88031 0.99896
968.45191 0.99902
967.02352 0.99905
965.59512 0.99905
964.16673 0.99902
962.73833 0.99896
961.30994 0.99889
959.88154 0.99880
958.45315 0.99872
957.02475 0.99863
955.59636 0.99856
954.16796 0.99851
952.73957 0.99850
951.31117 0.99851
949.88278 0.99854
948.45438 0.99860
947.02599 0.99866
945.59759 0.99873
944.16920 0.99879
942.74080 0.99885
941.31241 0.99889
939.88401 0.99893
938.45561 0.99895
937.02722 0.99897
935.59882 0.99897
934.17043 0.99898
932.74203 0.99899
931.31364 0.99901
929.88524 0.99903
928.45685 0.99907
927.02845 0.99911
925.60006 0.99917
924.17166 0.99924
922.74327 0.99932
921.31487 0.99941
919.88648 0.99951
918.45808 0.99962
917.02969 0.99973
915.60129 0.99983
914.17290 0.99991
912.74450 0.99997
911.31611 1.00000
909.88771 1.00000
908.45932 0.99995
907.03092 0.99986
905.60253 0.99970
904.17413 0.99950
902.74574 0.99925
901.31734 0.99896
899.88895 0.99864
898.46055 0.99831
897.03216 0.99797
895.60376 0.99765
894.17537 0.99735
892.74697 0.99707
891.31857 0.99683
889.89018 0.99663
888.46178 0.99648
887.03339 0.99638
885.60499 0.99632
884.17660 0.99629
882.74820 0.99630
881.31981 0.99633
879.89141 0.99638
878.46302 0.99645
877.03462 0.99654
875.60623 0.99664
874.17783 0.99676
872.74944 0.99688
871.32104 0.99700
869.89265 0.99713
868.46425 0.99725
867.03586 0.99738
865.60746 0.99750
864.17907 0.99763
862.75067 0.99774
861.32228 0.99785
859.89388 0.99795
858.46549 0.99804
857.03709 0.99813
855.60870 0.99823
854.18030 0.99833
852.75191 0.99845
851.32351 0.99857
849.89512 0.99868
848.46672 0.99880
847.03833 0.99892
845.60993 0.99903
844.18153 0.99915
842.75314 0.99926
841.32474 0.99935
839.89635 0.99943
838.46795 0.99950
837.03956 0.99954
835.61116 0.99957
834.18277 0.99960
832.75437 0.99962
831.32598 0.99962
829.89758 0.99960
828.46919 0.99956
827.04079 0.99951
825.61240 0.99944
824.18400 0.99937
822.75561 0.99930
821.32721 0.99923
819.89882 0.99915
818.47042 0.99908
817.04203 0.99900
815.61363 0.99893
814.18524 0.99887
812.75684 0.99881
811.32845 0.99875
809.90005 0.99870
808.47166 0.99865
807.04326 0.99859
805.61487 0.99854
804.18647 0.99850
802.75808 0.99846
801.32968 0.99843
799.90129 0.99841
798.47289 0.99839
797.04449 0.99837
795.61610 0.99835
794.18770 0.99832
792.75931 0.99829
791.33091 0.99826
789.90252 0.99824
788.47412 0.99821
787.04573 0.99819
785.61733 0.99817
784.18894 0.99815
782.76054 0.99814
781.33215 0.99812
779.90375 0.99811
778.47536 0.99810
777.04696 0.99807
775.61857 0.99803
774.19017 0.99798
772.76178 0.99792
771.33338 0.99786
769.90499 0.99778
768.47659 0.99770
767.04820 0.99761
765.61980 0.99751
764.19141 0.99738
762.76301 0.99725
761.33462 0.99711
759.90622 0.99698
758.47783 0.99685
757.04943 0.99673
755.62104 0.99663
754.19264 0.99655
752.76425 0.99650
751.33585 0.99648
749.90745 0.99650
748.47906 0.99654
747.05066 0.99660
745.62227 0.99667
744.19387 0.99675
742.76548 0.99683
741.33708 0.99690
739.90869 0.99698
738.48029 0.99705
737.05190 0.99712
735.62350 0.99716
734.19511 0.99719
732.76671 0.99718
731.33832 0.99716
729.90992 0.99711
728.48153 0.99704
727.05313 0.99695
725.62474 0.99686
724.19634 0.99676
722.76795 0.99668
721.33955 0.99662
719.91116 0.99659
718.48276 0.99661
717.05437 0.99666
715.62597 0.99674
714.19758 0.99684
712.76918 0.99696
711.34079 0.99707
709.91239 0.99718
708.48400 0.99727
707.05560 0.99732
705.62721 0.99734
704.19881 0.99730
702.77041 0.99721
701.34202 0.99709
699.91362 0.99693
698.48523 0.99673
697.05683 0.99650
695.62844 0.99622
694.20004 0.99590
692.77165 0.99555
691.34325 0.99522
689.91486 0.99493
688.48646 0.99470
687.05807 0.99449
685.62967 0.99430
684.20128 0.99409
682.77288 0.99387
681.34449 0.99366
679.91609 0.99347
678.48770 0.99331
677.05930 0.99317
675.63091 0.99304
674.20251 0.99292
672.77412 0.99282
671.34572 0.99275
669.91733 0.99276
668.48893 0.99287
667.06054 0.99308
665.63214 0.99333
664.20375 0.99355
662.77535 0.99372
661.34696 0.99384
659.91856 0.99392
658.49017 0.99398
657.06177 0.99401
655.63337 0.99402
654.20498 0.99402
652.77658 0.99401
651.34819 0.99402
649.91979 0.99406
648.49140 0.99415
647.06300 0.99429
645.63461 0.99448
644.20621 0.99470
642.77782 0.99492
641.34942 0.99513
639.92103 0.99533
638.49263 0.99552
637.06424 0.99569
635.63584 0.99583
634.20745 0.99594
632.77905 0.99602
631.35066 0.99609
629.92226 0.99613
628.49387 0.99617
627.06547 0.99620
625.63708 0.99623
624.20868 0.99628
622.78029 0.99635
621.35189 0.99646
619.92350 0.99659
618.49510 0.99675
617.06671 0.99692
615.63831 0.99707
614.20992 0.99719
612.78152 0.99727
611.35313 0.99731
609.92473 0.99732
608.49633 0.99730
607.06794 0.99724
605.63954 0.99718
604.21115 0.99711
602.78275 0.99707
601.35436 0.99704
599.92596 0.99702
598.49757 0.99701
597.06917 0.99700
595.64078 0.99698
594.21238 0.99696
592.78399 0.99694
591.35559 0.99691
589.92720 0.99687
588.49880 0.99683
587.07041 0.99679
585.64201 0.99677
584.21362 0.99681
582.78522 0.99689
581.35683 0.99701
579.92843 0.99714
578.50004 0.99725
577.07164 0.99732
575.64325 0.99732
574.21485 0.99727
572.78646 0.99715
571.35806 0.99700
569.92967 0.99680
568.50127 0.99655
567.07288 0.99626
565.64448 0.99596
564.21609 0.99570
562.78769 0.99551
561.35929 0.99542
559.93090 0.99544
558.50250 0.99557
557.07411 0.99581
555.64571 0.99613
554.21732 0.99652
552.78892 0.99696
551.36053 0.99742
549.93213 0.99787
548.50374 0.99825
547.07534 0.99854
545.64695 0.99869
544.21855 0.99871
542.79016 0.99862
541.36176 0.99844
539.93337 0.99823
538.50497 0.99803
537.07658 0.99786
535.64818 0.99775
534.21979 0.99771
532.79139 0.99775
531.36300 0.99786
529.93460 0.99803
528.50621 0.99819
527.07781 0.99833
525.64942 0.99838
524.22102 0.99831
522.79263 0.99810
521.36423 0.99776
519.93584 0.99737
518.50744 0.99699
517.07905 0.99669
515.65065 0.99650
514.22225 0.99646
512.79386 0.99660
511.36546 0.99691
509.93707 0.99737
508.50867 0.99792
507.08028 0.99850
505.65188 0.99904
504.22349 0.99950
502.79509 0.99984
501.36670 1.00000
499.93830 0.99996
498.50991 0.99973
497.08151 0.99936
495.65312 0.99890
494.22472 0.99843
492.79633 0.99797
491.36793 0.99756
489.93954 0.99717
488.51114 0.99677
487.08275 0.99635
485.65435 0.99588
484.22596 0.99540
482.79756 0.99496
481.36917 0.99463
479.94077 0.99442
478.51238 0.99430
477.08398 0.99424
475.65559 0.99423
474.22719 0.99431
472.79880 0.99453
471.37040 0.99487
469.94201 0.99530
468.51361 0.99575
467.08521 0.99617
465.65682 0.99653
464.22842 0.99679
462.80003 0.99693
461.37163 0.99698
459.94324 0.99699
458.51484 0.99701
457.08645 0.99699
455.65805 0.99687
454.22966 0.99662
452.80126 0.99626
451.37287 0.99582
449.94447 0.99533
448.51608 0.99483
447.08768 0.99436
445.65929 0.99398
444.23089 0.99370
442.80250 0.99351
441.37410 0.99335
439.94571 0.99321
438.51731 0.99316
437.08892 0.99324
435.66052 0.99344
434.23213 0.99375
432.80373 0.99411
431.37534 0.99450
429.94694 0.99493
428.51855 0.99542
427.09015 0.99601
425.66176 0.99675
424.23336 0.99761
422.80497 0.99852
421.37657 0.99924
419.94817 0.99972
418.51978 0.99997
417.09138 1.00000
415.66299 0.99997
414.23459 0.99982
412.80620 0.99956
411.37780 0.99923
409.94941 0.99932
408.52101 0.99942
407.09262 0.99952
405.66422 0.99961
404.23583 0.99971
402.80743 0.99981
401.37904 0.99990
399.95064 1.00000
