3998.07136	1.00000
3996.64296	1.00000
3995.21457	1.00000
3993.78618	1.00000
3992.35779	1.00000
3990.92939	1.00000
3989.50100	1.00000
3988.07261	1.00000
3986.64422	0.99999
3985.21582	0.99999
3983.78743	0.99998
3982.35904	0.99997
3980.93064	0.99996
3979.50225	0.99994
3978.07386	0.99992
3976.64547	0.99991
3975.21707	0.99989
3973.78868	0.99986
3972.36029	0.99984
3970.93189	0.99981
3969.50350	0.99979
3968.07511	0.99977
3966.64672	0.99976
3965.21832	0.99975
3963.78993	0.99975
3962.36154	0.99975
3960.93315	0.99976
3959.50475	0.99978
3958.07636	0.99979
3956.64797	0.99981
3955.21957	0.99981
3953.79118	0.99982
3952.36279	0.99981
3950.93440	0.99980
3949.50600	0.99978
3948.07761	0.99976
3946.64922	0.99972
3945.22082	0.99968
3943.79243	0.99963
3942.36404	0.99960
3940.93565	0.99957
3939.50725	0.99956
3938.07886	0.99956
3936.65047	0.99958
3935.22208	0.99961
3933.79368	0.99966
3932.36529	0.99971
3930.93690	0.99975
3929.50850	0.99977
3928.08011	0.99978
3926.65172	0.99978
3925.22333	0.99977
3923.79493	0.99975
3922.36654	0.99971
3920.93815	0.99967
3919.50976	0.99960
3918.08136	0.99952
3916.65297	0.99943
3915.22458	0.99933
3913.79618	0.99926
3912.36779	0.99922
3910.93940	0.99923
3909.51101	0.99929
3908.08261	0.99940
3906.65422	0.99953
3905.22583	0.99966
3903.79743	0.99976
3902.36904	0.99982
3900.94065	0.99982
3899.51226	0.99976
3898.08386	0.99968
3896.65547	0.99958
3895.22708	0.99949
3893.79869	0.99943
3892.37029	0.99940
3890.94190	0.99940
3889.51351	0.99942
3888.08511	0.99945
3886.65672	0.99948
3885.22833	0.99950
3883.79994	0.99949
3882.37154	0.99947
3880.94315	0.99943
3879.51476	0.99938
3878.08636	0.99933
3876.65797	0.99931
3875.22958	0.99931
3873.80119	0.99934
3872.37279	0.99939
3870.94440	0.99944
3869.51601	0.99947
3868.08762	0.99947
3866.65922	0.99944
3865.23083	0.99940
3863.80244	0.99936
3862.37404	0.99935
3860.94565	0.99937
3859.51726	0.99943
3858.08887	0.99952
3856.66047	0.99963
3855.23208	0.99972
3853.80369	0.99974
3852.37530	0.99968
3850.94690	0.99956
3849.51851	0.99940
3848.09012	0.99925
3846.66172	0.99914
3845.23333	0.99910
3843.80494	0.99911
3842.37655	0.99918
3840.94815	0.99928
3839.51976	0.99938
3838.09137	0.99944
3836.66297	0.99943
3835.23458	0.99936
3833.80619	0.99923
3832.37780	0.99909
3830.94940	0.99896
3829.52101	0.99886
3828.09262	0.99882
3826.66423	0.99882
3825.23583	0.99886
3823.80744	0.99893
3822.37905	0.99900
3820.95065	0.99904
3819.52226	0.99904
3818.09387	0.99899
3816.66548	0.99890
3815.23708	0.99879
3813.80869	0.99868
3812.38030	0.99860
3810.95190	0.99857
3809.52351	0.99859
3808.09512	0.99867
3806.66673	0.99879
3805.23833	0.99892
3803.80994	0.99904
3802.38155	0.99911
3800.95316	0.99913
3799.52476	0.99907
3798.09637	0.99894
3796.66798	0.99877
3795.23958	0.99856
3793.81119	0.99834
3792.38280	0.99815
3790.95441	0.99800
3789.52601	0.99791
3788.09762	0.99788
3786.66923	0.99790
3785.24083	0.99795
3783.81244	0.99802
3782.38405	0.99808
3780.95566	0.99814
3779.52726	0.99818
3778.09887	0.99820
3776.67048	0.99819
3775.24209	0.99817
3773.81369	0.99816
3772.38530	0.99815
3770.95691	0.99814
3769.52851	0.99815
3768.10012	0.99816
3766.67173	0.99817
3765.24334	0.99818
3763.81494	0.99820
3762.38655	0.99824
3760.95816	0.99831
3759.52977	0.99840
3758.10137	0.99853
3756.67298	0.99869
3755.24459	0.99887
3753.81619	0.99907
3752.38780	0.99926
3750.95941	0.99938
3749.53102	0.99940
3748.10262	0.99932
3746.67423	0.99916
3745.24584	0.99895
3743.81744	0.99871
3742.38905	0.99848
3740.96066	0.99826
3739.53227	0.99807
3738.10387	0.99792
3736.67548	0.99778
3735.24709	0.99763
3733.81870	0.99743
3732.39030	0.99717
3730.96191	0.99688
3729.53352	0.99662
3728.10512	0.99640
3726.67673	0.99626
3725.24834	0.99621
3723.81995	0.99627
3722.39155	0.99641
3720.96316	0.99663
3719.53477	0.99688
3718.10637	0.99711
3716.67798	0.99728
3715.24959	0.99738
3713.82120	0.99738
3712.39280	0.99730
3710.96441	0.99714
3709.53602	0.99693
3708.10763	0.99669
3706.67923	0.99645
3705.25084	0.99624
3703.82245	0.99609
3702.39405	0.99600
3700.96566	0.99598
3699.53727	0.99604
3698.10888	0.99617
3696.68048	0.99636
3695.25209	0.99658
3693.82370	0.99683
3692.39531	0.99706
3690.96691	0.99727
3689.53852	0.99742
3688.11013	0.99750
3686.68173	0.99753
3685.25334	0.99754
3683.82495	0.99756
3682.39656	0.99761
3680.96816	0.99773
3679.53977	0.99790
3678.11138	0.99812
3676.68298	0.99836
3675.25459	0.99858
3673.82620	0.99873
3672.39781	0.99880
3670.96941	0.99877
3669.54102	0.99867
3668.11263	0.99850
3666.68424	0.99832
3665.25584	0.99813
3663.82745	0.99798
3662.39906	0.99788
3660.97066	0.99784
3659.54227	0.99788
3658.11388	0.99799
3656.68549	0.99815
3655.25709	0.99835
3653.82870	0.99857
3652.40031	0.99877
3650.97191	0.99893
3649.54352	0.99901
3648.11513	0.99899
3646.68674	0.99887
3645.25834	0.99866
3643.82995	0.99839
3642.40156	0.99810
3640.97317	0.99781
3639.54477	0.99757
3638.11638	0.99738
3636.68799	0.99727
3635.25959	0.99721
3633.83120	0.99718
3632.40281	0.99717
3630.97442	0.99716
3629.54602	0.99715
3628.11763	0.99713
3626.68924	0.99711
3625.26084	0.99710
3623.83245	0.99715
3622.40406	0.99724
3620.97567	0.99739
3619.54727	0.99756
3618.11888	0.99771
3616.69049	0.99783
3615.26210	0.99790
3613.83370	0.99791
3612.40531	0.99784
3610.97692	0.99771
3609.54852	0.99753
3608.12013	0.99734
3606.69174	0.99715
3605.26335	0.99699
3603.83495	0.99685
3602.40656	0.99673
3600.97817	0.99664
3599.54978	0.99657
3598.12138	0.99653
3596.69299	0.99652
3595.26460	0.99653
3593.83620	0.99655
3592.40781	0.99660
3590.97942	0.99665
3589.55103	0.99671
3588.12263	0.99677
3586.69424	0.99681
3585.26585	0.99684
3583.83745	0.99685
3582.40906	0.99684
3580.98067	0.99682
3579.55228	0.99679
3578.12388	0.99676
3576.69549	0.99675
3575.26710	0.99676
3573.83871	0.99680
3572.41031	0.99687
3570.98192	0.99696
3569.55353	0.99706
3568.12513	0.99715
3566.69674	0.99721
3565.26835	0.99722
3563.83996	0.99718
3562.41156	0.99709
3560.98317	0.99698
3559.55478	0.99686
3558.12638	0.99675
3556.69799	0.99667
3555.26960	0.99663
3553.84121	0.99664
3552.41281	0.99667
3550.98442	0.99672
3549.55603	0.99677
3548.12764	0.99680
3546.69924	0.99681
3545.27085	0.99680
3543.84246	0.99677
3542.41406	0.99673
3540.98567	0.99669
3539.55728	0.99668
3538.12889	0.99669
3536.70049	0.99672
3535.27210	0.99676
3533.84371	0.99681
3532.41532	0.99685
3530.98692	0.99688
3529.55853	0.99688
3528.13014	0.99685
3526.70174	0.99680
3525.27335	0.99673
3523.84496	0.99666
3522.41657	0.99660
3520.98817	0.99656
3519.55978	0.99654
3518.13139	0.99653
3516.70299	0.99654
3515.27460	0.99656
3513.84621	0.99658
3512.41782	0.99661
3510.98942	0.99663
3509.56103	0.99664
3508.13264	0.99664
3506.70425	0.99664
3505.27585	0.99663
3503.84746	0.99663
3502.41907	0.99662
3500.99067	0.99661
3499.56228	0.99660
3498.13389	0.99660
3496.70550	0.99660
3495.27710	0.99662
3493.84871	0.99664
3492.42032	0.99668
3490.99192	0.99673
3489.56353	0.99679
3488.13514	0.99685
3486.70675	0.99690
3485.27835	0.99694
3483.84996	0.99697
3482.42157	0.99698
3480.99318	0.99697
3479.56478	0.99694
3478.13639	0.99692
3476.70800	0.99689
3475.27960	0.99687
3473.85121	0.99687
3472.42282	0.99687
3470.99443	0.99689
3469.56603	0.99692
3468.13764	0.99695
3466.70925	0.99698
3465.28085	0.99702
3463.85246	0.99705
3462.42407	0.99707
3460.99568	0.99710
3459.56728	0.99713
3458.13889	0.99716
3456.71050	0.99719
3455.28211	0.99724
3453.85371	0.99729
3452.42532	0.99736
3450.99693	0.99743
3449.56853	0.99751
3448.14014	0.99758
3446.71175	0.99766
3445.28336	0.99772
3443.85496	0.99776
3442.42657	0.99779
3440.99818	0.99780
3439.56979	0.99781
3438.14139	0.99782
3436.71300	0.99783
3435.28461	0.99785
3433.85621	0.99788
3432.42782	0.99792
3430.99943	0.99797
3429.57104	0.99804
3428.14264	0.99812
3426.71425	0.99820
3425.28586	0.99829
3423.85746	0.99838
3422.42907	0.99848
3421.00068	0.99858
3419.57229	0.99867
3418.14389	0.99875
3416.71550	0.99882
3415.28711	0.99887
3413.85872	0.99891
3412.43032	0.99895
3411.00193	0.99898
3409.57354	0.99901
3408.14514	0.99904
3406.71675	0.99907
3405.28836	0.99910
3403.85997	0.99913
3402.43157	0.99916
3401.00318	0.99919
3399.57479	0.99922
3398.14639	0.99924
3396.71800	0.99926
3395.28961	0.99928
3393.86122	0.99930
3392.43282	0.99932
3391.00443	0.99936
3389.57604	0.99941
3388.14765	0.99947
3386.71925	0.99954
3385.29086	0.99961
3383.86247	0.99969
3382.43407	0.99975
3381.00568	0.99981
3379.57729	0.99984
3378.14890	0.99986
3376.72050	0.99986
3375.29211	0.99985
3373.86372	0.99985
3372.43533	0.99984
3371.00693	0.99984
3369.57854	0.99985
3368.15015	0.99986
3366.72175	0.99989
3365.29336	0.99992
3363.86497	0.99994
3362.43658	0.99996
3361.00818	0.99997
3359.57979	0.99998
3358.15140	0.99998
3356.72300	0.99998
3355.29461	0.99997
3353.86622	0.99995
3352.43783	0.99993
3351.00943	0.99992
3349.58104	0.99992
3348.15265	0.99992
3346.72426	0.99993
3345.29586	0.99994
3343.86747	0.99995
3342.43908	0.99996
3341.01068	0.99997
3339.58229	0.99997
3338.15390	0.99997
3336.72551	0.99997
3335.29711	0.99996
3333.86872	0.99994
3332.44033	0.99991
3331.01193	0.99987
3329.58354	0.99982
3328.15515	0.99976
3326.72676	0.99970
3325.29836	0.99964
3323.86997	0.99959
3322.44158	0.99954
3321.01319	0.99950
3319.58479	0.99947
3318.15640	0.99943
3316.72801	0.99938
3315.29961	0.99933
3313.87122	0.99927
3312.44283	0.99920
3311.01444	0.99915
3309.58604	0.99909
3308.15765	0.99905
3306.72926	0.99900
3305.30086	0.99896
3303.87247	0.99891
3302.44408	0.99886
3301.01569	0.99881
3299.58729	0.99876
3298.15890	0.99871
3296.73051	0.99867
3295.30212	0.99865
3293.87372	0.99866
3292.44533	0.99869
3291.01694	0.99874
3289.58854	0.99879
3288.16015	0.99884
3286.73176	0.99887
3285.30337	0.99889
3283.87497	0.99888
3282.44658	0.99884
3281.01819	0.99878
3279.58980	0.99872
3278.16140	0.99865
3276.73301	0.99860
3275.30462	0.99856
3273.87622	0.99855
3272.44783	0.99856
3271.01944	0.99859
3269.59105	0.99865
3268.16265	0.99872
3266.73426	0.99879
3265.30587	0.99888
3263.87747	0.99897
3262.44908	0.99907
3261.02069	0.99915
3259.59230	0.99922
3258.16390	0.99927
3256.73551	0.99931
3255.30712	0.99932
3253.87873	0.99933
3252.45033	0.99933
3251.02194	0.99933
3249.59355	0.99935
3248.16515	0.99938
3246.73676	0.99944
3245.30837	0.99951
3243.87998	0.99959
3242.45158	0.99966
3241.02319	0.99972
3239.59480	0.99976
3238.16640	0.99980
3236.73801	0.99982
3235.30962	0.99984
3233.88123	0.99987
3232.45283	0.99990
3231.02444	0.99992
3229.59605	0.99994
3228.16766	0.99996
3226.73926	0.99997
3225.31087	0.99998
3223.88248	0.99998
3222.45408	0.99998
3221.02569	0.99998
3219.59730	0.99998
3218.16891	0.99998
3216.74051	0.99998
3215.31212	0.99997
3213.88373	0.99995
3212.45534	0.99992
3211.02694	0.99988
3209.59855	0.99985
3208.17016	0.99984
3206.74176	0.99984
3205.31337	0.99985
3203.88498	0.99989
3202.45659	0.99992
3201.02819	0.99995
3199.59980	0.99997
3198.17141	0.99997
3196.74301	0.99996
3195.31462	0.99993
3193.88623	0.99989
3192.45784	0.99984
3191.02944	0.99981
3189.60105	0.99977
3188.17266	0.99975
3186.74427	0.99972
3185.31587	0.99969
3183.88748	0.99966
3182.45909	0.99962
3181.03069	0.99957
3179.60230	0.99952
3178.17391	0.99945
3176.74552	0.99939
3175.31712	0.99932
3173.88873	0.99924
3172.46034	0.99917
3171.03194	0.99909
3169.60355	0.99902
3168.17516	0.99895
3166.74677	0.99889
3165.31837	0.99884
3163.88998	0.99879
3162.46159	0.99874
3161.03320	0.99868
3159.60480	0.99862
3158.17641	0.99855
3156.74802	0.99848
3155.31962	0.99840
3153.89123	0.99832
3152.46284	0.99825
3151.03445	0.99818
3149.60605	0.99812
3148.17766	0.99807
3146.74927	0.99801
3145.32087	0.99794
3143.89248	0.99785
3142.46409	0.99776
3141.03570	0.99765
3139.60730	0.99755
3138.17891	0.99746
3136.75052	0.99737
3135.32213	0.99731
3133.89373	0.99725
3132.46534	0.99721
3131.03695	0.99716
3129.60855	0.99711
3128.18016	0.99705
3126.75177	0.99698
3125.32338	0.99688
3123.89498	0.99678
3122.46659	0.99668
3121.03820	0.99657
3119.60981	0.99647
3118.18141	0.99638
3116.75302	0.99630
3115.32463	0.99622
3113.89623	0.99614
3112.46784	0.99607
3111.03945	0.99601
3109.61106	0.99595
3108.18266	0.99589
3106.75427	0.99584
3105.32588	0.99579
3103.89748	0.99573
3102.46909	0.99567
3101.04070	0.99559
3099.61231	0.99550
3098.18391	0.99539
3096.75552	0.99527
3095.32713	0.99514
3093.89874	0.99502
3092.47034	0.99490
3091.04195	0.99479
3089.61356	0.99469
3088.18516	0.99459
3086.75677	0.99449
3085.32838	0.99439
3083.89999	0.99430
3082.47159	0.99422
3081.04320	0.99415
3079.61481	0.99410
3078.18641	0.99407
3076.75802	0.99406
3075.32963	0.99405
3073.90124	0.99405
3072.47284	0.99403
3071.04445	0.99399
3069.61606	0.99393
3068.18767	0.99386
3066.75927	0.99378
3065.33088	0.99370
3063.90249	0.99363
3062.47409	0.99357
3061.04570	0.99352
3059.61731	0.99348
3058.18892	0.99344
3056.76052	0.99340
3055.33213	0.99335
3053.90374	0.99330
3052.47535	0.99325
3051.04695	0.99320
3049.61856	0.99316
3048.19017	0.99314
3046.76177	0.99313
3045.33338	0.99313
3043.90499	0.99315
3042.47660	0.99316
3041.04820	0.99318
3039.61981	0.99319
3038.19142	0.99320
3036.76302	0.99319
3035.33463	0.99318
3033.90624	0.99317
3032.47785	0.99315
3031.04945	0.99313
3029.62106	0.99311
3028.19267	0.99310
3026.76428	0.99309
3025.33588	0.99308
3023.90749	0.99309
3022.47910	0.99309
3021.05070	0.99310
3019.62231	0.99311
3018.19392	0.99312
3016.76553	0.99313
3015.33713	0.99315
3013.90874	0.99316
3012.48035	0.99318
3011.05195	0.99320
3009.62356	0.99323
3008.19517	0.99325
3006.76678	0.99327
3005.33838	0.99328
3003.90999	0.99327
3002.48160	0.99325
3001.05321	0.99322
2999.62481	0.99318
2998.19642	0.99312
2996.76803	0.99306
2995.33963	0.99299
2993.91124	0.99292
2992.48285	0.99286
2991.05446	0.99279
2989.62606	0.99273
2988.19767	0.99266
2986.76928	0.99259
2985.34088	0.99250
2983.91249	0.99240
2982.48410	0.99229
2981.05571	0.99215
2979.62731	0.99199
2978.19892	0.99182
2976.77053	0.99163
2975.34214	0.99144
2973.91374	0.99125
2972.48535	0.99106
2971.05696	0.99088
2969.62856	0.99071
2968.20017	0.99055
2966.77178	0.99040
2965.34339	0.99027
2963.91499	0.99016
2962.48660	0.99007
2961.05821	0.99000
2959.62982	0.98995
2958.20142	0.98993
2956.77303	0.98992
2955.34464	0.98992
2953.91624	0.98994
2952.48785	0.98995
2951.05946	0.98997
2949.63107	0.98998
2948.20267	0.98998
2946.77428	0.98998
2945.34589	0.98998
2943.91749	0.98998
2942.48910	0.98998
2941.06071	0.98999
2939.63232	0.99001
2938.20392	0.99004
2936.77553	0.99009
2935.34714	0.99014
2933.91875	0.99020
2932.49035	0.99027
2931.06196	0.99034
2929.63357	0.99042
2928.20517	0.99050
2926.77678	0.99059
2925.34839	0.99069
2923.92000	0.99080
2922.49160	0.99092
2921.06321	0.99104
2919.63482	0.99116
2918.20642	0.99127
2916.77803	0.99139
2915.34964	0.99149
2913.92125	0.99158
2912.49285	0.99166
2911.06446	0.99172
2909.63607	0.99178
2908.20768	0.99182
2906.77928	0.99186
2905.35089	0.99189
2903.92250	0.99190
2902.49410	0.99191
2901.06571	0.99190
2899.63732	0.99190
2898.20893	0.99188
2896.78053	0.99188
2895.35214	0.99187
2893.92375	0.99187
2892.49536	0.99188
2891.06696	0.99190
2889.63857	0.99193
2888.21018	0.99197
2886.78178	0.99201
2885.35339	0.99206
2883.92500	0.99211
2882.49661	0.99217
2881.06821	0.99221
2879.63982	0.99226
2878.21143	0.99230
2876.78303	0.99235
2875.35464	0.99239
2873.92625	0.99245
2872.49786	0.99251
2871.06946	0.99259
2869.64107	0.99268
2868.21268	0.99277
2866.78429	0.99287
2865.35589	0.99297
2863.92750	0.99305
2862.49911	0.99313
2861.07071	0.99318
2859.64232	0.99323
2858.21393	0.99327
2856.78554	0.99331
2855.35714	0.99335
2853.92875	0.99341
2852.50036	0.99349
2851.07196	0.99357
2849.64357	0.99367
2848.21518	0.99377
2846.78679	0.99387
2845.35839	0.99396
2843.93000	0.99405
2842.50161	0.99412
2841.07322	0.99420
2839.64482	0.99428
2838.21643	0.99436
2836.78804	0.99444
2835.35964	0.99453
2833.93125	0.99461
2832.50286	0.99469
2831.07447	0.99477
2829.64607	0.99483
2828.21768	0.99489
2826.78929	0.99494
2825.36089	0.99499
2823.93250	0.99504
2822.50411	0.99510
2821.07572	0.99516
2819.64732	0.99522
2818.21893	0.99528
2816.79054	0.99534
2815.36215	0.99539
2813.93375	0.99543
2812.50536	0.99546
2811.07697	0.99548
2809.64857	0.99550
2808.22018	0.99553
2806.79179	0.99556
2805.36340	0.99560
2803.93500	0.99565
2802.50661	0.99572
2801.07822	0.99578
2799.64983	0.99585
2798.22143	0.99591
2796.79304	0.99598
2795.36465	0.99604
2793.93625	0.99610
2792.50786	0.99615
2791.07947	0.99621
2789.65108	0.99626
2788.22268	0.99631
2786.79429	0.99635
2785.36590	0.99639
2783.93750	0.99642
2782.50911	0.99645
2781.08072	0.99647
2779.65233	0.99649
2778.22393	0.99650
2776.79554	0.99652
2775.36715	0.99653
2773.93876	0.99655
2772.51036	0.99657
2771.08197	0.99660
2769.65358	0.99663
2768.22518	0.99666
2766.79679	0.99669
2765.36840	0.99673
2763.94001	0.99676
2762.51161	0.99679
2761.08322	0.99681
2759.65483	0.99683
2758.22643	0.99684
2756.79804	0.99686
2755.36965	0.99687
2753.94126	0.99689
2752.51286	0.99690
2751.08447	0.99692
2749.65608	0.99694
2748.22769	0.99695
2746.79929	0.99698
2745.37090	0.99700
2743.94251	0.99703
2742.51411	0.99706
2741.08572	0.99709
2739.65733	0.99713
2738.22894	0.99717
2736.80054	0.99721
2735.37215	0.99724
2733.94376	0.99726
2732.51537	0.99729
2731.08697	0.99730
2729.65858	0.99732
2728.23019	0.99733
2726.80179	0.99735
2725.37340	0.99737
2723.94501	0.99740
2722.51662	0.99743
2721.08822	0.99748
2719.65983	0.99752
2718.23144	0.99757
2716.80304	0.99761
2715.37465	0.99764
2713.94626	0.99767
2712.51787	0.99770
2711.08947	0.99772
2709.66108	0.99773
2708.23269	0.99775
2706.80430	0.99776
2705.37590	0.99778
2703.94751	0.99780
2702.51912	0.99782
2701.09072	0.99784
2699.66233	0.99786
2698.23394	0.99787
2696.80555	0.99789
2695.37715	0.99791
2693.94876	0.99793
2692.52037	0.99795
2691.09197	0.99797
2689.66358	0.99799
2688.23519	0.99802
2686.80680	0.99805
2685.37840	0.99808
2683.95001	0.99811
2682.52162	0.99814
2681.09323	0.99817
2679.66483	0.99819
2678.23644	0.99821
2676.80805	0.99823
2675.37965	0.99825
2673.95126	0.99827
2672.52287	0.99829
2671.09448	0.99832
2669.66608	0.99835
2668.23769	0.99837
2666.80930	0.99840
2665.38090	0.99841
2663.95251	0.99842
2662.52412	0.99843
2661.09573	0.99844
2659.66733	0.99844
2658.23894	0.99845
2656.81055	0.99847
2655.38216	0.99848
2653.95376	0.99849
2652.52537	0.99850
2651.09698	0.99850
2649.66858	0.99850
2648.24019	0.99850
2646.81180	0.99850
2645.38341	0.99851
2643.95501	0.99852
2642.52662	0.99854
2641.09823	0.99856
2639.66984	0.99859
2638.24144	0.99862
2636.81305	0.99866
2635.38466	0.99870
2633.95626	0.99874
2632.52787	0.99878
2631.09948	0.99883
2629.67109	0.99886
2628.24269	0.99889
2626.81430	0.99892
2625.38591	0.99893
2623.95751	0.99894
2622.52912	0.99894
2621.10073	0.99895
2619.67234	0.99896
2618.24394	0.99897
2616.81555	0.99898
2615.38716	0.99899
2613.95877	0.99900
2612.53037	0.99900
2611.10198	0.99900
2609.67359	0.99901
2608.24519	0.99902
2606.81680	0.99903
2605.38841	0.99905
2603.96002	0.99908
2602.53162	0.99911
2601.10323	0.99914
2599.67484	0.99915
2598.24644	0.99916
2596.81805	0.99917
2595.38966	0.99917
2593.96127	0.99917
2592.53287	0.99918
2591.10448	0.99921
2589.67609	0.99924
2588.24770	0.99929
2586.81930	0.99934
2585.39091	0.99939
2583.96252	0.99945
2582.53412	0.99949
2581.10573	0.99953
2579.67734	0.99956
2578.24895	0.99958
2576.82055	0.99960
2575.39216	0.99962
2573.96377	0.99963
2572.53537	0.99964
2571.10698	0.99965
2569.67859	0.99965
2568.25020	0.99965
2566.82180	0.99964
2565.39341	0.99962
2563.96502	0.99959
2562.53663	0.99957
2561.10823	0.99956
2559.67984	0.99955
2558.25145	0.99954
2556.82305	0.99955
2555.39466	0.99956
2553.96627	0.99957
2552.53788	0.99957
2551.10948	0.99956
2549.68109	0.99953
2548.25270	0.99950
2546.82431	0.99947
2545.39591	0.99944
2543.96752	0.99941
2542.53913	0.99940
2541.11073	0.99940
2539.68234	0.99942
2538.25395	0.99946
2536.82556	0.99951
2535.39716	0.99956
2533.96877	0.99961
2532.54038	0.99965
2531.11198	0.99969
2529.68359	0.99972
2528.25520	0.99974
2526.82681	0.99975
2525.39841	0.99976
2523.97002	0.99977
2522.54163	0.99978
2521.11324	0.99979
2519.68484	0.99980
2518.25645	0.99980
2516.82806	0.99980
2515.39966	0.99979
2513.97127	0.99978
2512.54288	0.99976
2511.11449	0.99975
2509.68609	0.99974
2508.25770	0.99974
2506.82931	0.99974
2505.40091	0.99974
2503.97252	0.99975
2502.54413	0.99976
2501.11574	0.99976
2499.68734	0.99977
2498.25895	0.99978
2496.83056	0.99979
2495.40217	0.99982
2493.97377	0.99985
2492.54538	0.99989
2491.11699	0.99992
2489.68859	0.99995
2488.26020	0.99998
2486.83181	0.99999
2485.40342	0.99999
2483.97502	0.99998
2482.54663	0.99996
2481.11824	0.99994
2479.68985	0.99992
2478.26145	0.99990
2476.83306	0.99990
2475.40467	0.99989
2473.97627	0.99989
2472.54788	0.99989
2471.11949	0.99989
2469.69110	0.99989
2468.26270	0.99989
2466.83431	0.99989
2465.40592	0.99989
2463.97752	0.99989
2462.54913	0.99989
2461.12074	0.99988
2459.69235	0.99988
2458.26395	0.99987
2456.83556	0.99986
2455.40717	0.99986
2453.97878	0.99986
2452.55038	0.99987
2451.12199	0.99988
2449.69360	0.99989
2448.26520	0.99991
2446.83681	0.99993
2445.40842	0.99995
2443.98003	0.99996
2442.55163	0.99996
2441.12324	0.99997
2439.69485	0.99998
2438.26645	0.99998
2436.83806	0.99999
2435.40967	0.99999
2433.98128	0.99999
2432.55288	1.00000
2431.12449	1.00000
2429.69610	1.00000
2428.26771	0.99999
2426.83931	0.99998
2425.41092	0.99997
2423.98253	0.99996
2422.55413	0.99995
2421.12574	0.99994
2419.69735	0.99993
2418.26896	0.99992
2416.84056	0.99992
2415.41217	0.99991
2413.98378	0.99990
2412.55538	0.99988
2411.12699	0.99987
2409.69860	0.99986
2408.27021	0.99985
2406.84181	0.99985
2405.41342	0.99986
2403.98503	0.99986
2402.55664	0.99987
2401.12824	0.99988
2399.69985	0.99989
2398.27146	0.99989
2396.84306	0.99989
2395.41467	0.99989
2393.98628	0.99989
2392.55789	0.99989
2391.12949	0.99989
2389.70110	0.99989
2388.27271	0.99989
2386.84432	0.99989
2385.41592	0.99989
2383.98753	0.99989
2382.55914	0.99989
2381.13074	0.99989
2379.70235	0.99989
2378.27396	0.99989
2376.84557	0.99989
2375.41717	0.99989
2373.98878	0.99989
2372.56039	0.99989
2371.13199	0.99989
2369.70360	0.99989
2368.27521	0.99989
2366.84682	0.99989
2365.41842	0.99989
2363.99003	0.99989
2362.56164	0.99989
2361.13325	0.99989
2359.70485	0.99989
2358.27646	0.99989
2356.84807	0.99989
2355.41967	0.99989
2353.99128	0.99989
2352.56289	0.99989
2351.13450	0.99989
2349.70610	0.99989
2348.27771	0.99989
2346.84932	0.99989
2345.42092	0.99989
2343.99253	0.99989
2342.56414	0.99989
2341.13575	0.99989
2339.70735	0.99989
2338.27896	0.99989
2336.85057	0.99989
2335.42218	0.99989
2333.99378	0.99989
2332.56539	0.99989
2331.13700	0.99989
2329.70860	0.99989
2328.28021	0.99989
2326.85182	0.99989
2325.42343	0.99989
2323.99503	0.99989
2322.56664	0.99989
2321.13825	0.99989
2319.70986	0.99989
2318.28146	0.99989
2316.85307	0.99989
2315.42468	0.99989
2313.99628	0.99989
2312.56789	0.99989
2311.13950	0.99989
2309.71111	0.99989
2308.28271	0.99989
2306.85432	0.99989
2305.42593	0.99989
2303.99753	0.99989
2302.56914	0.99989
2301.14075	0.99989
2299.71236	0.99989
2298.28396	0.99989
2296.85557	0.99989
2295.42718	0.99989
2293.99879	0.99989
2292.57039	0.99989
2291.14200	0.99989
2289.71361	0.99989
2288.28521	0.99989
2286.85682	0.99989
2285.42843	0.99989
2284.00004	0.99989
2282.57164	0.99989
2281.14325	0.99989
2279.71486	0.99989
2278.28646	0.99989
2276.85807	0.99989
2275.42968	0.99989
2274.00129	0.99989
2272.57289	0.99989
2271.14450	0.99989
2269.71611	0.99989
2268.28772	0.99989
2266.85932	0.99989
2265.43093	0.99989
2264.00254	0.99989
2262.57414	0.99989
2261.14575	0.99989
2259.71736	0.99989
2258.28897	0.99989
2256.86057	0.99989
2255.43218	0.99989
2254.00379	0.99989
2252.57539	0.99989
2251.14700	0.99989
2249.71861	0.99989
2248.29022	0.99989
2246.86182	0.99988
2245.43343	0.99988
2244.00504	0.99988
2242.57665	0.99989
2241.14825	0.99991
2239.71986	0.99993
2238.29147	0.99995
2236.86307	0.99996
2235.43468	0.99997
2234.00629	0.99996
2232.57790	0.99994
2231.14950	0.99990
2229.72111	0.99985
2228.29272	0.99979
2226.86433	0.99974
2225.43593	0.99971
2224.00754	0.99969
2222.57915	0.99969
2221.15075	0.99969
2219.72236	0.99969
2218.29397	0.99968
2216.86558	0.99965
2215.43718	0.99962
2214.00879	0.99959
2212.58040	0.99956
2211.15200	0.99953
2209.72361	0.99953
2208.29522	0.99955
2206.86683	0.99957
2205.43843	0.99959
2204.01004	0.99959
2202.58165	0.99957
2201.15326	0.99954
2199.72486	0.99950
2198.29647	0.99949
2196.86808	0.99949
2195.43968	0.99952
2194.01129	0.99956
2192.58290	0.99962
2191.15451	0.99967
2189.72611	0.99970
2188.29772	0.99970
2186.86933	0.99966
2185.44093	0.99960
2184.01254	0.99952
2182.58415	0.99946
2181.15576	0.99941
2179.72736	0.99937
2178.29897	0.99935
2176.87058	0.99934
2175.44219	0.99933
2174.01379	0.99934
2172.58540	0.99936
2171.15701	0.99940
2169.72861	0.99945
2168.30022	0.99951
2166.87183	0.99957
2165.44344	0.99962
2164.01504	0.99964
2162.58665	0.99962
2161.15826	0.99955
2159.72987	0.99944
2158.30147	0.99930
2156.87308	0.99915
2155.44469	0.99903
2154.01629	0.99893
2152.58790	0.99888
2151.15951	0.99887
2149.73112	0.99889
2148.30272	0.99893
2146.87433	0.99899
2145.44594	0.99904
2144.01754	0.99907
2142.58915	0.99909
2141.16076	0.99910
2139.73237	0.99910
2138.30397	0.99912
2136.87558	0.99914
2135.44719	0.99916
2134.01880	0.99919
2132.59040	0.99921
2131.16201	0.99922
2129.73362	0.99922
2128.30522	0.99922
2126.87683	0.99923
2125.44844	0.99927
2124.02005	0.99933
2122.59165	0.99941
2121.16326	0.99951
2119.73487	0.99962
2118.30647	0.99971
2116.87808	0.99978
2115.44969	0.99980
2114.02130	0.99980
2112.59290	0.99978
2111.16451	0.99975
2109.73612	0.99974
2108.30773	0.99976
2106.87933	0.99980
2105.45094	0.99985
2104.02255	0.99990
2102.59415	0.99993
2101.16576	0.99994
2099.73737	0.99990
2098.30898	0.99982
2096.88058	0.99972
2095.45219	0.99960
2094.02380	0.99950
2092.59540	0.99943
2091.16701	0.99939
2089.73862	0.99939
2088.31023	0.99942
2086.88183	0.99948
2085.45344	0.99955
2084.02505	0.99963
2082.59666	0.99972
2081.16826	0.99978
2079.73987	0.99983
2078.31148	0.99984
2076.88308	0.99983
2075.45469	0.99979
2074.02630	0.99974
2072.59791	0.99968
2071.16951	0.99963
2069.74112	0.99959
2068.31273	0.99959
2066.88434	0.99962
2065.45594	0.99968
2064.02755	0.99974
2062.59916	0.99978
2061.17076	0.99979
2059.74237	0.99979
2058.31398	0.99977
2056.88559	0.99975
2055.45719	0.99974
2054.02880	0.99975
2052.60041	0.99976
2051.17201	0.99979
2049.74362	0.99981
2048.31523	0.99980
2046.88684	0.99976
2045.45844	0.99967
2044.03005	0.99956
2042.60166	0.99943
2041.17327	0.99932
2039.74487	0.99924
2038.31648	0.99919
2036.88809	0.99916
2035.45969	0.99915
2034.03130	0.99915
2032.60291	0.99915
2031.17452	0.99915
2029.74612	0.99915
2028.31773	0.99914
2026.88934	0.99913
2025.46094	0.99910
2024.03255	0.99907
2022.60416	0.99905
2021.17577	0.99904
2019.74737	0.99906
2018.31898	0.99912
2016.89059	0.99922
2015.46220	0.99937
2014.03380	0.99954
2012.60541	0.99970
2011.17702	0.99984
2009.74862	0.99991
2008.32023	0.99991
2006.89184	0.99982
2005.46345	0.99968
2004.03505	0.99952
2002.60666	0.99937
2001.17827	0.99925
1999.74988	0.99918
1998.32148	0.99917
1996.89309	0.99919
1995.46470	0.99926
1994.03630	0.99935
1992.60791	0.99942
1991.17952	0.99947
1989.75113	0.99949
1988.32273	0.99950
1986.89434	0.99952
1985.46595	0.99954
1984.03755	0.99957
1982.60916	0.99961
1981.18077	0.99965
1979.75238	0.99969
1978.32398	0.99973
1976.89559	0.99976
1975.46720	0.99975
1974.03881	0.99971
1972.61041	0.99966
1971.18202	0.99962
1969.75363	0.99959
1968.32523	0.99958
1966.89684	0.99958
1965.46845	0.99960
1964.04006	0.99964
1962.61166	0.99969
1961.18327	0.99973
1959.75488	0.99975
1958.32648	0.99974
1956.89809	0.99970
1955.46970	0.99964
1954.04131	0.99957
1952.61291	0.99951
1951.18452	0.99945
1949.75613	0.99940
1948.32774	0.99936
1946.89934	0.99935
1945.47095	0.99935
1944.04256	0.99936
1942.61416	0.99937
1941.18577	0.99937
1939.75738	0.99936
1938.32899	0.99933
1936.90059	0.99929
1935.47220	0.99925
1934.04381	0.99921
1932.61541	0.99918
1931.18702	0.99916
1929.75863	0.99916
1928.33024	0.99920
1926.90184	0.99926
1925.47345	0.99934
1924.04506	0.99941
1922.61667	0.99947
1921.18827	0.99951
1919.75988	0.99951
1918.33149	0.99949
1916.90309	0.99944
1915.47470	0.99937
1914.04631	0.99929
1912.61792	0.99921
1911.18952	0.99913
1909.76113	0.99906
1908.33274	0.99900
1906.90435	0.99895
1905.47595	0.99892
1904.04756	0.99890
1902.61917	0.99889
1901.19077	0.99891
1899.76238	0.99893
1898.33399	0.99898
1896.90560	0.99902
1895.47720	0.99906
1894.04881	0.99909
1892.62042	0.99911
1891.19202	0.99912
1889.76363	0.99911
1888.33524	0.99910
1886.90685	0.99908
1885.47845	0.99906
1884.05006	0.99905
1882.62167	0.99904
1881.19328	0.99904
1879.76488	0.99905
1878.33649	0.99906
1876.90810	0.99909
1875.47970	0.99914
1874.05131	0.99920
1872.62292	0.99926
1871.19453	0.99932
1869.76613	0.99937
1868.33774	0.99939
1866.90935	0.99937
1865.48095	0.99931
1864.05256	0.99922
1862.62417	0.99910
1861.19578	0.99897
1859.76738	0.99885
1858.33899	0.99874
1856.91060	0.99868
1855.48221	0.99866
1854.05381	0.99869
1852.62542	0.99875
1851.19703	0.99883
1849.76863	0.99892
1848.34024	0.99899
1846.91185	0.99904
1845.48346	0.99905
1844.05506	0.99901
1842.62667	0.99894
1841.19828	0.99887
1839.76989	0.99881
1838.34149	0.99879
1836.91310	0.99881
1835.48471	0.99886
1834.05631	0.99894
1832.62792	0.99904
1831.19953	0.99912
1829.77114	0.99918
1828.34274	0.99918
1826.91435	0.99914
1825.48596	0.99906
1824.05756	0.99896
1822.62917	0.99885
1821.20078	0.99876
1819.77239	0.99870
1818.34399	0.99866
1816.91560	0.99865
1815.48721	0.99866
1814.05882	0.99868
1812.63042	0.99870
1811.20203	0.99873
1809.77364	0.99875
1808.34524	0.99876
1806.91685	0.99877
1805.48846	0.99879
1804.06007	0.99882
1802.63167	0.99888
1801.20328	0.99895
1799.77489	0.99902
1798.34649	0.99910
1796.91810	0.99915
1795.48971	0.99919
1794.06132	0.99920
1792.63292	0.99918
1791.20453	0.99913
1789.77614	0.99905
1788.34775	0.99897
1786.91935	0.99889
1785.49096	0.99883
1784.06257	0.99880
1782.63417	0.99880
1781.20578	0.99883
1779.77739	0.99889
1778.34900	0.99897
1776.92060	0.99905
1775.49221	0.99912
1774.06382	0.99917
1772.63542	0.99918
1771.20703	0.99916
1769.77864	0.99912
1768.35025	0.99906
1766.92185	0.99900
1765.49346	0.99895
1764.06507	0.99890
1762.63668	0.99887
1761.20828	0.99886
1759.77989	0.99888
1758.35150	0.99891
1756.92310	0.99896
1755.49471	0.99902
1754.06632	0.99908
1752.63793	0.99915
1751.20953	0.99922
1749.78114	0.99927
1748.35275	0.99928
1746.92436	0.99927
1745.49596	0.99924
1744.06757	0.99921
1742.63918	0.99920
1741.21078	0.99922
1739.78239	0.99926
1738.35400	0.99932
1736.92561	0.99940
1735.49721	0.99946
1734.06882	0.99949
1732.64043	0.99946
1731.21203	0.99936
1729.78364	0.99923
1728.35525	0.99909
1726.92686	0.99900
1725.49846	0.99898
1724.07007	0.99902
1722.64168	0.99913
1721.21329	0.99929
1719.78489	0.99946
1718.35650	0.99963
1716.92811	0.99973
1715.49971	0.99975
1714.07132	0.99969
1712.64293	0.99959
1711.21454	0.99949
1709.78614	0.99942
1708.35775	0.99940
1706.92936	0.99946
1705.50096	0.99956
1704.07257	0.99969
1702.64418	0.99981
1701.21579	0.99989
1699.78739	0.99987
1698.35900	0.99975
1696.93061	0.99952
1695.50222	0.99923
1694.07382	0.99890
1692.64543	0.99857
1691.21704	0.99827
1689.78864	0.99800
1688.36025	0.99776
1686.93186	0.99752
1685.50347	0.99727
1684.07507	0.99697
1682.64668	0.99662
1681.21829	0.99622
1679.78990	0.99579
1678.36150	0.99534
1676.93311	0.99488
1675.50472	0.99441
1674.07632	0.99393
1672.64793	0.99343
1671.21954	0.99288
1669.79115	0.99226
1668.36275	0.99156
1666.93436	0.99078
1665.50597	0.98999
1664.07757	0.98921
1662.64918	0.98848
1661.22079	0.98786
1659.79240	0.98738
1658.36400	0.98708
1656.93561	0.98696
1655.50722	0.98701
1654.07883	0.98718
1652.65043	0.98743
1651.22204	0.98770
1649.79365	0.98797
1648.36525	0.98825
1646.93686	0.98852
1645.50847	0.98880
1644.08008	0.98908
1642.65168	0.98941
1641.22329	0.98981
1639.79490	0.99027
1638.36650	0.99079
1636.93811	0.99133
1635.50972	0.99189
1634.08133	0.99242
1632.65293	0.99294
1631.22454	0.99344
1629.79615	0.99393
1628.36776	0.99440
1626.93936	0.99485
1625.51097	0.99529
1624.08258	0.99568
1622.65418	0.99603
1621.22579	0.99633
1619.79740	0.99657
1618.36901	0.99675
1616.94061	0.99687
1615.51222	0.99695
1614.08383	0.99700
1612.65543	0.99704
1611.22704	0.99707
1609.79865	0.99709
1608.37026	0.99710
1606.94186	0.99707
1605.51347	0.99701
1604.08508	0.99692
1602.65669	0.99679
1601.22829	0.99664
1599.79990	0.99647
1598.37151	0.99630
1596.94311	0.99616
1595.51472	0.99607
1594.08633	0.99605
1592.65794	0.99608
1591.22954	0.99617
1589.80115	0.99630
1588.37276	0.99647
1586.94437	0.99667
1585.51597	0.99687
1584.08758	0.99706
1582.65919	0.99723
1581.23079	0.99738
1579.80240	0.99749
1578.37401	0.99755
1576.94562	0.99755
1575.51722	0.99746
1574.08883	0.99729
1572.66044	0.99705
1571.23204	0.99677
1569.80365	0.99647
1568.37526	0.99616
1566.94687	0.99586
1565.51847	0.99558
1564.09008	0.99530
1562.66169	0.99501
1561.23330	0.99467
1559.80490	0.99424
1558.37651	0.99368
1556.94812	0.99300
1555.51972	0.99225
1554.09133	0.99148
1552.66294	0.99078
1551.23455	0.99020
1549.80615	0.98979
1548.37776	0.98958
1546.94937	0.98956
1545.52097	0.98973
1544.09258	0.99002
1542.66419	0.99037
1541.23580	0.99071
1539.80740	0.99099
1538.37901	0.99121
1536.95062	0.99140
1535.52223	0.99159
1534.09383	0.99182
1532.66544	0.99209
1531.23705	0.99242
1529.80865	0.99281
1528.38026	0.99326
1526.95187	0.99372
1525.52348	0.99415
1524.09508	0.99449
1522.66669	0.99473
1521.23830	0.99486
1519.80991	0.99494
1518.38151	0.99500
1516.95312	0.99510
1515.52473	0.99527
1514.09633	0.99551
1512.66794	0.99583
1511.23955	0.99620
1509.81116	0.99659
1508.38276	0.99695
1506.95437	0.99723
1505.52598	0.99740
1504.09758	0.99747
1502.66919	0.99748
1501.24080	0.99747
1499.81241	0.99748
1498.38401	0.99752
1496.95562	0.99761
1495.52723	0.99773
1494.09884	0.99789
1492.67044	0.99806
1491.24205	0.99821
1489.81366	0.99829
1488.38526	0.99828
1486.95687	0.99820
1485.52848	0.99806
1484.10009	0.99791
1482.67169	0.99775
1481.24330	0.99761
1479.81491	0.99749
1478.38651	0.99740
1476.95812	0.99733
1475.52973	0.99729
1474.10134	0.99724
1472.67294	0.99714
1471.24455	0.99700
1469.81616	0.99685
1468.38777	0.99670
1466.95937	0.99660
1465.53098	0.99653
1464.10259	0.99651
1462.67419	0.99651
1461.24580	0.99655
1459.81741	0.99661
1458.38902	0.99666
1456.96062	0.99667
1455.53223	0.99663
1454.10384	0.99655
1452.67544	0.99645
1451.24705	0.99635
1449.81866	0.99625
1448.39027	0.99615
1446.96187	0.99608
1445.53348	0.99604
1444.10509	0.99604
1442.67670	0.99607
1441.24830	0.99614
1439.81991	0.99623
1438.39152	0.99632
1436.96312	0.99641
1435.53473	0.99648
1434.10634	0.99652
1432.67795	0.99654
1431.24955	0.99654
1429.82116	0.99653
1428.39277	0.99653
1426.96438	0.99653
1425.53598	0.99654
1424.10759	0.99655
1422.67920	0.99655
1421.25080	0.99654
1419.82241	0.99649
1418.39402	0.99639
1416.96563	0.99626
1415.53723	0.99611
1414.10884	0.99595
1412.68045	0.99580
1411.25205	0.99568
1409.82366	0.99559
1408.39527	0.99555
1406.96688	0.99555
1405.53848	0.99561
1404.11009	0.99570
1402.68170	0.99581
1401.25331	0.99594
1399.82491	0.99607
1398.39652	0.99620
1396.96813	0.99631
1395.53973	0.99639
1394.11134	0.99645
1392.68295	0.99649
1391.25456	0.99652
1389.82616	0.99656
1388.39777	0.99660
1386.96938	0.99666
1385.54098	0.99672
1384.11259	0.99681
1382.68420	0.99692
1381.25581	0.99704
1379.82741	0.99715
1378.39902	0.99724
1376.97063	0.99732
1375.54224	0.99737
1374.11384	0.99740
1372.68545	0.99741
1371.25706	0.99742
1369.82866	0.99743
1368.40027	0.99745
1366.97188	0.99749
1365.54349	0.99754
1364.11509	0.99759
1362.68670	0.99764
1361.25831	0.99767
1359.82992	0.99769
1358.40152	0.99769
1356.97313	0.99768
1355.54474	0.99766
1354.11634	0.99763
1352.68795	0.99761
1351.25956	0.99760
1349.83117	0.99761
1348.40277	0.99764
1346.97438	0.99768
1345.54599	0.99773
1344.11759	0.99778
1342.68920	0.99782
1341.26081	0.99785
1339.83242	0.99785
1338.40402	0.99783
1336.97563	0.99778
1335.54724	0.99771
1334.11885	0.99765
1332.69045	0.99759
1331.26206	0.99755
1329.83367	0.99753
1328.40527	0.99754
1326.97688	0.99756
1325.54849	0.99760
1324.12010	0.99764
1322.69170	0.99769
1321.26331	0.99774
1319.83492	0.99779
1318.40652	0.99784
1316.97813	0.99787
1315.54974	0.99790
1314.12135	0.99793
1312.69295	0.99794
1311.26456	0.99795
1309.83617	0.99796
1308.40778	0.99795
1306.97938	0.99793
1305.55099	0.99791
1304.12260	0.99787
1302.69420	0.99783
1301.26581	0.99777
1299.83742	0.99771
1298.40903	0.99765
1296.98063	0.99758
1295.55224	0.99750
1294.12385	0.99740
1292.69545	0.99729
1291.26706	0.99717
1289.83867	0.99704
1288.41028	0.99691
1286.98188	0.99679
1285.55349	0.99670
1284.12510	0.99665
1282.69671	0.99664
1281.26831	0.99667
1279.83992	0.99672
1278.41153	0.99679
1276.98313	0.99687
1275.55474	0.99693
1274.12635	0.99698
1272.69796	0.99701
1271.26956	0.99703
1269.84117	0.99702
1268.41278	0.99701
1266.98439	0.99699
1265.55599	0.99695
1264.12760	0.99690
1262.69921	0.99683
1261.27081	0.99675
1259.84242	0.99664
1258.41403	0.99651
1256.98564	0.99635
1255.55724	0.99618
1254.12885	0.99599
1252.70046	0.99579
1251.27206	0.99558
1249.84367	0.99538
1248.41528	0.99519
1246.98689	0.99501
1245.55849	0.99487
1244.13010	0.99476
1242.70171	0.99470
1241.27332	0.99468
1239.84492	0.99472
1238.41653	0.99481
1236.98814	0.99494
1235.55974	0.99511
1234.13135	0.99531
1232.70296	0.99552
1231.27457	0.99574
1229.84617	0.99596
1228.41778	0.99618
1226.98939	0.99638
1225.56099	0.99657
1224.13260	0.99676
1222.70421	0.99692
1221.27582	0.99708
1219.84742	0.99722
1218.41903	0.99736
1216.99064	0.99749
1215.56225	0.99761
1214.13385	0.99773
1212.70546	0.99784
1211.27707	0.99794
1209.84867	0.99804
1208.42028	0.99814
1206.99189	0.99824
1205.56350	0.99834
1204.13510	0.99844
1202.70671	0.99854
1201.27832	0.99865
1199.84993	0.99877
1198.42153	0.99889
1196.99314	0.99901
1195.56475	0.99912
1194.13635	0.99922
1192.70796	0.99931
1191.27957	0.99937
1189.85118	0.99941
1188.42278	0.99944
1186.99439	0.99945
1185.56600	0.99945
1184.13760	0.99945
1182.70921	0.99945
1181.28082	0.99945
1179.85243	0.99945
1178.42403	0.99943
1176.99564	0.99940
1175.56725	0.99936
1174.13886	0.99930
1172.71046	0.99924
1171.28207	0.99917
1169.85368	0.99911
1168.42528	0.99905
1166.99689	0.99900
1165.56850	0.99897
1164.14011	0.99895
1162.71171	0.99895
1161.28332	0.99897
1159.85493	0.99903
1158.42653	0.99912
1156.99814	0.99923
1155.56975	0.99937
1154.14136	0.99952
1152.71296	0.99966
1151.28457	0.99979
1149.85618	0.99989
1148.42779	0.99997
1146.99939	1.00000
1145.57100	1.00000
1144.14261	0.99998
1142.71421	0.99993
1141.28582	0.99986
1139.85743	0.99977
1138.42904	0.99966
1137.00064	0.99951
1135.57225	0.99934
1134.14386	0.99912
1132.71546	0.99886
1131.28707	0.99855
1129.85868	0.99818
1128.43029	0.99776
1127.00189	0.99729
1125.57350	0.99678
1124.14511	0.99623
1122.71672	0.99567
1121.28832	0.99512
1119.85993	0.99460
1118.43154	0.99414
1117.00314	0.99376
1115.57475	0.99348
1114.14636	0.99329
1112.71797	0.99321
1111.28957	0.99323
1109.86118	0.99332
1108.43279	0.99347
1107.00440	0.99366
1105.57600	0.99388
1104.14761	0.99411
1102.71922	0.99433
1101.29082	0.99453
1099.86243	0.99470
1098.43404	0.99482
1097.00565	0.99490
1095.57725	0.99494
1094.14886	0.99495
1092.72047	0.99494
1091.29207	0.99491
1089.86368	0.99488
1088.43529	0.99485
1087.00690	0.99483
1085.57850	0.99480
1084.15011	0.99475
1082.72172	0.99468
1081.29333	0.99459
1079.86493	0.99449
1078.43654	0.99438
1077.00815	0.99428
1075.57975	0.99419
1074.15136	0.99411
1072.72297	0.99403
1071.29458	0.99395
1069.86618	0.99385
1068.43779	0.99372
1067.00940	0.99354
1065.58100	0.99331
1064.15261	0.99302
1062.72422	0.99268
1061.29583	0.99228
1059.86743	0.99185
1058.43904	0.99136
1057.01065	0.99083
1055.58226	0.99026
1054.15386	0.98967
1052.72547	0.98906
1051.29708	0.98847
1049.86868	0.98792
1048.44029	0.98745
1047.01190	0.98709
1045.58351	0.98687
1044.15511	0.98679
1042.72672	0.98688
1041.29833	0.98710
1039.86994	0.98745
1038.44154	0.98789
1037.01315	0.98841
1035.58476	0.98898
1034.15636	0.98960
1032.72797	0.99024
1031.29958	0.99090
1029.87119	0.99157
1028.44279	0.99226
1027.01440	0.99295
1025.58601	0.99362
1024.15761	0.99426
1022.72922	0.99485
1021.30083	0.99539
1019.87244	0.99587
1018.44404	0.99628
1017.01565	0.99663
1015.58726	0.99692
1014.15887	0.99714
1012.73047	0.99731
1011.30208	0.99742
1009.87369	0.99746
1008.44529	0.99744
1007.01690	0.99734
1005.58851	0.99716
1004.16012	0.99691
1002.73172	0.99660
1001.30333	0.99626
999.87494	0.99591
998.44654	0.99558
997.01815	0.99531
995.58976	0.99511
994.16137	0.99502
992.73297	0.99504
991.30458	0.99517
989.87619	0.99540
988.44780	0.99569
987.01940	0.99603
985.59101	0.99639
984.16262	0.99672
982.73422	0.99702
981.30583	0.99726
979.87744	0.99746
978.44905	0.99762
977.02065	0.99775
975.59226	0.99786
974.16387	0.99798
972.73547	0.99811
971.30708	0.99826
969.87869	0.99842
968.45030	0.99858
967.02190	0.99874
965.59351	0.99887
964.16512	0.99899
962.73673	0.99907
961.30833	0.99913
959.87994	0.99918
958.45155	0.99922
957.02315	0.99926
955.59476	0.99931
954.16637	0.99936
952.73798	0.99941
951.30958	0.99946
949.88119	0.99950
948.45280	0.99951
947.02441	0.99950
945.59601	0.99946
944.16762	0.99938
942.73923	0.99927
941.31083	0.99914
939.88244	0.99897
938.45405	0.99878
937.02566	0.99857
935.59726	0.99835
934.16887	0.99812
932.74048	0.99789
931.31208	0.99769
929.88369	0.99752
928.45530	0.99740
927.02691	0.99733
925.59851	0.99731
924.17012	0.99734
922.74173	0.99742
921.31334	0.99753
919.88494	0.99766
918.45655	0.99779
917.02816	0.99791
915.59976	0.99802
914.17137	0.99811
912.74298	0.99820
911.31459	0.99828
909.88619	0.99837
908.45780	0.99848
907.02941	0.99861
905.60101	0.99875
904.17262	0.99890
902.74423	0.99905
901.31584	0.99917
899.88744	0.99927
898.45905	0.99933
897.03066	0.99936
895.60227	0.99936
894.17387	0.99934
892.74548	0.99932
891.31709	0.99931
889.88869	0.99930
888.46030	0.99930
887.03191	0.99930
885.60352	0.99928
884.17512	0.99926
882.74673	0.99921
881.31834	0.99915
879.88995	0.99908
878.46155	0.99901
877.03316	0.99893
875.60477	0.99887
874.17637	0.99882
872.74798	0.99877
871.31959	0.99872
869.89120	0.99865
868.46280	0.99858
867.03441	0.99849
865.60602	0.99840
864.17762	0.99830
862.74923	0.99820
861.32084	0.99811
859.89245	0.99804
858.46405	0.99798
857.03566	0.99793
855.60727	0.99789
854.17888	0.99786
852.75048	0.99783
851.32209	0.99782
849.89370	0.99783
848.46530	0.99784
847.03691	0.99788
845.60852	0.99792
844.18013	0.99798
842.75173	0.99803
841.32334	0.99809
839.89495	0.99815
838.46655	0.99820
837.03816	0.99825
835.60977	0.99829
834.18138	0.99834
832.75298	0.99839
831.32459	0.99843
829.89620	0.99846
828.46781	0.99848
827.03941	0.99848
825.61102	0.99845
824.18263	0.99841
822.75423	0.99835
821.32584	0.99828
819.89745	0.99822
818.46906	0.99816
817.04066	0.99813
815.61227	0.99813
814.18388	0.99815
812.75548	0.99821
811.32709	0.99828
809.89870	0.99838
808.47031	0.99848
807.04191	0.99859
805.61352	0.99869
804.18513	0.99876
802.75674	0.99879
801.32834	0.99878
799.89995	0.99874
798.47156	0.99868
797.04316	0.99862
795.61477	0.99855
794.18638	0.99852
792.75799	0.99851
791.32959	0.99854
789.90120	0.99858
788.47281	0.99861
787.04442	0.99863
785.61602	0.99861
784.18763	0.99857
782.75924	0.99850
781.33084	0.99841
779.90245	0.99832
778.47406	0.99822
777.04567	0.99813
775.61727	0.99806
774.18888	0.99799
772.76049	0.99792
771.33209	0.99786
769.90370	0.99779
768.47531	0.99772
767.04692	0.99764
765.61852	0.99756
764.19013	0.99749
762.76174	0.99744
761.33335	0.99742
759.90495	0.99741
758.47656	0.99741
757.04817	0.99741
755.61977	0.99740
754.19138	0.99740
752.76299	0.99739
751.33460	0.99738
749.90620	0.99737
748.47781	0.99738
747.04942	0.99741
745.62102	0.99747
744.19263	0.99755
742.76424	0.99764
741.33585	0.99773
739.90745	0.99781
738.47906	0.99785
737.05067	0.99788
735.62228	0.99789
734.19388	0.99788
732.76549	0.99785
731.33710	0.99781
729.90870	0.99774
728.48031	0.99767
727.05192	0.99759
725.62353	0.99753
724.19513	0.99748
722.76674	0.99744
721.33835	0.99743
719.90996	0.99746
718.48156	0.99752
717.05317	0.99762
715.62478	0.99772
714.19638	0.99781
712.76799	0.99788
711.33960	0.99792
709.91121	0.99793
708.48281	0.99791
707.05442	0.99785
705.62603	0.99774
704.19763	0.99756
702.76924	0.99732
701.34085	0.99702
699.91246	0.99665
698.48406	0.99623
697.05567	0.99579
695.62728	0.99535
694.19889	0.99494
692.77049	0.99461
691.34210	0.99437
689.91371	0.99421
688.48531	0.99410
687.05692	0.99403
685.62853	0.99400
684.20014	0.99399
682.77174	0.99398
681.34335	0.99392
679.91496	0.99377
678.48656	0.99352
677.05817	0.99320
675.62978	0.99285
674.20139	0.99251
672.77299	0.99223
671.34460	0.99206
669.91621	0.99206
668.48782	0.99227
667.05942	0.99269
665.63103	0.99323
664.20264	0.99378
662.77424	0.99425
661.34585	0.99458
659.91746	0.99476
658.48907	0.99479
657.06067	0.99471
655.63228	0.99456
654.20389	0.99440
652.77549	0.99430
651.34710	0.99429
649.91871	0.99439
648.49032	0.99458
647.06192	0.99484
645.63353	0.99515
644.20514	0.99548
642.77675	0.99582
641.34835	0.99613
639.91996	0.99640
638.49157	0.99663
637.06317	0.99681
635.63478	0.99697
634.20639	0.99710
632.77800	0.99724
631.34960	0.99739
629.92121	0.99754
628.49282	0.99767
627.06443	0.99775
625.63603	0.99777
624.20764	0.99771
622.77925	0.99760
621.35085	0.99747
619.92246	0.99736
618.49407	0.99731
617.06568	0.99735
615.63728	0.99746
614.20889	0.99764
612.78050	0.99784
611.35210	0.99803
609.92371	0.99817
608.49532	0.99824
607.06693	0.99825
605.63853	0.99822
604.21014	0.99818
602.78175	0.99816
601.35336	0.99817
599.92496	0.99821
598.49657	0.99828
597.06818	0.99836
595.63978	0.99847
594.21139	0.99858
592.78300	0.99869
591.35461	0.99877
589.92621	0.99885
588.49782	0.99890
587.06943	0.99894
585.64103	0.99895
584.21264	0.99893
582.78425	0.99888
581.35586	0.99882
579.92746	0.99878
578.49907	0.99878
577.07068	0.99882
575.64229	0.99890
574.21389	0.99899
572.78550	0.99906
571.35711	0.99911
569.92871	0.99913
568.50032	0.99912
567.07193	0.99907
565.64354	0.99900
564.21514	0.99890
562.78675	0.99879
561.35836	0.99868
559.92997	0.99858
558.50157	0.99847
557.07318	0.99835
555.64479	0.99820
554.21639	0.99802
552.78800	0.99784
551.35961	0.99766
549.93122	0.99750
548.50282	0.99735
547.07443	0.99722
545.64604	0.99711
544.21764	0.99704
542.78925	0.99702
541.36086	0.99704
539.93247	0.99709
538.50407	0.99713
537.07568	0.99716
535.64729	0.99718
534.21890	0.99718
532.79050	0.99717
531.36211	0.99717
529.93372	0.99718
528.50532	0.99721
527.07693	0.99727
525.64854	0.99735
524.22015	0.99742
522.79175	0.99744
521.36336	0.99740
519.93497	0.99726
518.50657	0.99705
517.07818	0.99681
515.64979	0.99657
514.22140	0.99639
512.79300	0.99628
511.36461	0.99625
509.93622	0.99628
508.50783	0.99632
507.07943	0.99630
505.65104	0.99613
504.22265	0.99578
502.79425	0.99528
501.36586	0.99470
499.93747	0.99416
498.50908	0.99376
497.08068	0.99355
495.65229	0.99358
494.22390	0.99381
492.79550	0.99418
491.36711	0.99458
489.93872	0.99495
488.51033	0.99522
487.08193	0.99539
485.65354	0.99545
484.22515	0.99544
482.79676	0.99536
481.36836	0.99520
479.93997	0.99497
478.51158	0.99467
477.08318	0.99431
475.65479	0.99393
474.22640	0.99359
472.79801	0.99337
471.36961	0.99332
469.94122	0.99345
468.51283	0.99370
467.08444	0.99405
465.65604	0.99444
464.22765	0.99481
462.79926	0.99510
461.37086	0.99526
459.94247	0.99529
458.51408	0.99521
457.08569	0.99507
455.65729	0.99488
454.22890	0.99465
452.80051	0.99443
451.37211	0.99432
449.94372	0.99445
448.51533	0.99484
447.08694	0.99544
445.65854	0.99614
444.23015	0.99681
442.80176	0.99735
441.37337	0.99771
439.94497	0.99783
438.51658	0.99769
437.08819	0.99731
435.65979	0.99677
434.23140	0.99617
432.80301	0.99564
431.37462	0.99528
429.94622	0.99512
428.51783	0.99519
427.08944	0.99549
425.66104	0.99603
424.23265	0.99674
422.80426	0.99759
421.37587	0.99846
419.94747	0.99921
418.51908	0.99965
417.09069	0.99972
415.66230	0.99949
414.23390	0.99909
412.80551	0.99864
411.37712	0.99823
409.94872	0.99795
408.52033	0.99786
407.09194	0.99786
405.66355	0.99786
404.23515	0.99786
402.80676	0.99786
401.37837	0.99786
399.94998	0.99786
