3998.07136 0.99974
3996.64296 0.99974
3995.21457 0.99974
3993.78618 0.99974
3992.35779 0.99974
3990.92939 0.99974
3989.50100 0.99974
3988.07261 0.99973
3986.64422 0.99972
3985.21582 0.99971
3983.78743 0.99970
3982.35904 0.99968
3980.93064 0.99967
3979.50225 0.99966
3978.07386 0.99964
3976.64547 0.99961
3975.21707 0.99958
3973.78868 0.99955
3972.36029 0.99953
3970.93189 0.99952
3969.50350 0.99951
3968.07511 0.99952
3966.64672 0.99952
3965.21832 0.99952
3963.78993 0.99950
3962.36154 0.99947
3960.93315 0.99943
3959.50475 0.99939
3958.07636 0.99934
3956.64797 0.99931
3955.21957 0.99928
3953.79118 0.99926
3952.36279 0.99924
3950.93440 0.99923
3949.50600 0.99921
3948.07761 0.99917
3946.64922 0.99913
3945.22082 0.99908
3943.79243 0.99903
3942.36404 0.99898
3940.93565 0.99894
3939.50725 0.99890
3938.07886 0.99887
3936.65047 0.99885
3935.22208 0.99883
3933.79368 0.99880
3932.36529 0.99878
3930.93690 0.99875
3929.50850 0.99872
3928.08011 0.99868
3926.65172 0.99866
3925.22333 0.99864
3923.79493 0.99863
3922.36654 0.99863
3920.93815 0.99865
3919.50976 0.99867
3918.08136 0.99870
3916.65297 0.99873
3915.22458 0.99875
3913.79618 0.99875
3912.36779 0.99873
3910.93940 0.99868
3909.51101 0.99861
3908.08261 0.99852
3906.65422 0.99843
3905.22583 0.99834
3903.79743 0.99826
3902.36904 0.99821
3900.94065 0.99818
3899.51226 0.99818
3898.08386 0.99819
3896.65547 0.99820
3895.22708 0.99821
3893.79869 0.99822
3892.37029 0.99821
3890.94190 0.99820
3889.51351 0.99817
3888.08511 0.99813
3886.65672 0.99809
3885.22833 0.99805
3883.79994 0.99803
3882.37154 0.99801
3880.94315 0.99800
3879.51476 0.99801
3878.08636 0.99802
3876.65797 0.99803
3875.22958 0.99804
3873.80119 0.99804
3872.37279 0.99804
3870.94440 0.99803
3869.51601 0.99800
3868.08762 0.99796
3866.65922 0.99792
3865.23083 0.99789
3863.80244 0.99786
3862.37404 0.99783
3860.94565 0.99780
3859.51726 0.99777
3858.08887 0.99774
3856.66047 0.99771
3855.23208 0.99768
3853.80369 0.99765
3852.37530 0.99762
3850.94690 0.99759
3849.51851 0.99757
3848.09012 0.99756
3846.66172 0.99755
3845.23333 0.99754
3843.80494 0.99752
3842.37655 0.99750
3840.94815 0.99748
3839.51976 0.99746
3838.09137 0.99744
3836.66297 0.99740
3835.23458 0.99736
3833.80619 0.99731
3832.37780 0.99725
3830.94940 0.99719
3829.52101 0.99713
3828.09262 0.99707
3826.66423 0.99702
3825.23583 0.99698
3823.80744 0.99695
3822.37905 0.99695
3820.95065 0.99696
3819.52226 0.99698
3818.09387 0.99702
3816.66548 0.99705
3815.23708 0.99707
3813.80869 0.99708
3812.38030 0.99706
3810.95190 0.99703
3809.52351 0.99698
3808.09512 0.99693
3806.66673 0.99687
3805.23833 0.99681
3803.80994 0.99676
3802.38155 0.99672
3800.95316 0.99670
3799.52476 0.99668
3798.09637 0.99666
3796.66798 0.99665
3795.23958 0.99662
3793.81119 0.99660
3792.38280 0.99657
3790.95441 0.99654
3789.52601 0.99651
3788.09762 0.99647
3786.66923 0.99644
3785.24083 0.99641
3783.81244 0.99639
3782.38405 0.99638
3780.95566 0.99637
3779.52726 0.99638
3778.09887 0.99638
3776.67048 0.99638
3775.24209 0.99637
3773.81369 0.99636
3772.38530 0.99634
3770.95691 0.99630
3769.52851 0.99626
3768.10012 0.99623
3766.67173 0.99621
3765.24334 0.99620
3763.81494 0.99621
3762.38655 0.99621
3760.95816 0.99620
3759.52977 0.99619
3758.10137 0.99615
3756.67298 0.99610
3755.24459 0.99603
3753.81619 0.99594
3752.38780 0.99585
3750.95941 0.99576
3749.53102 0.99569
3748.10262 0.99564
3746.67423 0.99561
3745.24584 0.99557
3743.81744 0.99554
3742.38905 0.99551
3740.96066 0.99547
3739.53227 0.99542
3738.10387 0.99536
3736.67548 0.99529
3735.24709 0.99523
3733.81870 0.99519
3732.39030 0.99517
3730.96191 0.99519
3729.53352 0.99522
3728.10512 0.99527
3726.67673 0.99532
3725.24834 0.99537
3723.81995 0.99541
3722.39155 0.99542
3720.96316 0.99542
3719.53477 0.99541
3718.10637 0.99539
3716.67798 0.99538
3715.24959 0.99536
3713.82120 0.99535
3712.39280 0.99535
3710.96441 0.99535
3709.53602 0.99535
3708.10763 0.99534
3706.67923 0.99533
3705.25084 0.99532
3703.82245 0.99532
3702.39405 0.99532
3700.96566 0.99533
3699.53727 0.99535
3698.10888 0.99536
3696.68048 0.99536
3695.25209 0.99536
3693.82370 0.99535
3692.39531 0.99534
3690.96691 0.99532
3689.53852 0.99530
3688.11013 0.99531
3686.68173 0.99533
3685.25334 0.99536
3683.82495 0.99540
3682.39656 0.99544
3680.96816 0.99546
3679.53977 0.99547
3678.11138 0.99546
3676.68298 0.99543
3675.25459 0.99539
3673.82620 0.99534
3672.39781 0.99530
3670.96941 0.99528
3669.54102 0.99530
3668.11263 0.99535
3666.68424 0.99541
3665.25584 0.99550
3663.82745 0.99560
3662.39906 0.99569
3660.97066 0.99578
3659.54227 0.99585
3658.11388 0.99588
3656.68549 0.99589
3655.25709 0.99587
3653.82870 0.99583
3652.40031 0.99578
3650.97191 0.99572
3649.54352 0.99567
3648.11513 0.99564
3646.68674 0.99562
3645.25834 0.99562
3643.82995 0.99564
3642.40156 0.99567
3640.97317 0.99570
3639.54477 0.99572
3638.11638 0.99573
3636.68799 0.99573
3635.25959 0.99571
3633.83120 0.99566
3632.40281 0.99561
3630.97442 0.99554
3629.54602 0.99548
3628.11763 0.99542
3626.68924 0.99536
3625.26084 0.99531
3623.83245 0.99528
3622.40406 0.99525
3620.97567 0.99524
3619.54727 0.99523
3618.11888 0.99523
3616.69049 0.99523
3615.26210 0.99523
3613.83370 0.99523
3612.40531 0.99522
3610.97692 0.99521
3609.54852 0.99518
3608.12013 0.99515
3606.69174 0.99511
3605.26335 0.99507
3603.83495 0.99504
3602.40656 0.99502
3600.97817 0.99500
3599.54978 0.99499
3598.12138 0.99499
3596.69299 0.99498
3595.26460 0.99497
3593.83620 0.99495
3592.40781 0.99492
3590.97942 0.99487
3589.55103 0.99483
3588.12263 0.99477
3586.69424 0.99472
3585.26585 0.99467
3583.83745 0.99464
3582.40906 0.99461
3580.98067 0.99460
3579.55228 0.99461
3578.12388 0.99462
3576.69549 0.99464
3575.26710 0.99466
3573.83871 0.99468
3572.41031 0.99470
3570.98192 0.99470
3569.55353 0.99470
3568.12513 0.99469
3566.69674 0.99469
3565.26835 0.99469
3563.83996 0.99469
3562.41156 0.99469
3560.98317 0.99470
3559.55478 0.99471
3558.12638 0.99471
3556.69799 0.99471
3555.26960 0.99470
3553.84121 0.99469
3552.41281 0.99467
3550.98442 0.99466
3549.55603 0.99465
3548.12764 0.99464
3546.69924 0.99465
3545.27085 0.99466
3543.84246 0.99467
3542.41406 0.99468
3540.98567 0.99470
3539.55728 0.99471
3538.12889 0.99471
3536.70049 0.99471
3535.27210 0.99471
3533.84371 0.99470
3532.41532 0.99469
3530.98692 0.99466
3529.55853 0.99463
3528.13014 0.99460
3526.70174 0.99457
3525.27335 0.99455
3523.84496 0.99455
3522.41657 0.99458
3520.98817 0.99462
3519.55978 0.99468
3518.13139 0.99475
3516.70299 0.99483
3515.27460 0.99489
3513.84621 0.99494
3512.41782 0.99497
3510.98942 0.99498
3509.56103 0.99498
3508.13264 0.99498
3506.70425 0.99498
3505.27585 0.99498
3503.84746 0.99498
3502.41907 0.99499
3500.99067 0.99501
3499.56228 0.99503
3498.13389 0.99506
3496.70550 0.99510
3495.27710 0.99513
3493.84871 0.99517
3492.42032 0.99520
3490.99192 0.99524
3489.56353 0.99528
3488.13514 0.99531
3486.70675 0.99533
3485.27835 0.99534
3483.84996 0.99536
3482.42157 0.99537
3480.99318 0.99538
3479.56478 0.99539
3478.13639 0.99540
3476.70800 0.99541
3475.27960 0.99542
3473.85121 0.99545
3472.42282 0.99549
3470.99443 0.99554
3469.56603 0.99561
3468.13764 0.99567
3466.70925 0.99573
3465.28085 0.99578
3463.85246 0.99581
3462.42407 0.99582
3460.99568 0.99581
3459.56728 0.99579
3458.13889 0.99577
3456.71050 0.99577
3455.28211 0.99580
3453.85371 0.99587
3452.42532 0.99597
3450.99693 0.99610
3449.56853 0.99624
3448.14014 0.99637
3446.71175 0.99649
3445.28336 0.99660
3443.85496 0.99669
3442.42657 0.99677
3440.99818 0.99684
3439.56979 0.99691
3438.14139 0.99699
3436.71300 0.99707
3435.28461 0.99715
3433.85621 0.99722
3432.42782 0.99727
3430.99943 0.99731
3429.57104 0.99733
3428.14264 0.99735
3426.71425 0.99737
3425.28586 0.99740
3423.85746 0.99743
3422.42907 0.99747
3421.00068 0.99753
3419.57229 0.99760
3418.14389 0.99769
3416.71550 0.99779
3415.28711 0.99791
3413.85872 0.99803
3412.43032 0.99814
3411.00193 0.99825
3409.57354 0.99834
3408.14514 0.99841
3406.71675 0.99846
3405.28836 0.99849
3403.85997 0.99850
3402.43157 0.99851
3401.00318 0.99852
3399.57479 0.99855
3398.14639 0.99861
3396.71800 0.99868
3395.28961 0.99877
3393.86122 0.99888
3392.43282 0.99901
3391.00443 0.99915
3389.57604 0.99930
3388.14765 0.99945
3386.71925 0.99959
3385.29086 0.99971
3383.86247 0.99981
3382.43407 0.99989
3381.00568 0.99994
3379.57729 0.99996
3378.14890 0.99996
3376.72050 0.99993
3375.29211 0.99989
3373.86372 0.99985
3372.43533 0.99980
3371.00693 0.99976
3369.57854 0.99973
3368.15015 0.99972
3366.72175 0.99974
3365.29336 0.99976
3363.86497 0.99980
3362.43658 0.99984
3361.00818 0.99987
3359.57979 0.99989
3358.15140 0.99990
3356.72300 0.99989
3355.29461 0.99987
3353.86622 0.99985
3352.43783 0.99983
3351.00943 0.99982
3349.58104 0.99982
3348.15265 0.99982
3346.72426 0.99982
3345.29586 0.99983
3343.86747 0.99983
3342.43908 0.99982
3341.01068 0.99981
3339.58229 0.99979
3338.15390 0.99978
3336.72551 0.99977
3335.29711 0.99976
3333.86872 0.99976
3332.44033 0.99977
3331.01193 0.99977
3329.58354 0.99977
3328.15515 0.99976
3326.72676 0.99972
3325.29836 0.99966
3323.86997 0.99958
3322.44158 0.99949
3321.01319 0.99940
3319.58479 0.99932
3318.15640 0.99925
3316.72801 0.99920
3315.29961 0.99916
3313.87122 0.99914
3312.44283 0.99913
3311.01444 0.99912
3309.58604 0.99910
3308.15765 0.99908
3306.72926 0.99905
3305.30086 0.99902
3303.87247 0.99899
3302.44408 0.99894
3301.01569 0.99888
3299.58729 0.99881
3298.15890 0.99873
3296.73051 0.99866
3295.30212 0.99860
3293.87372 0.99855
3292.44533 0.99851
3291.01694 0.99851
3289.58854 0.99852
3288.16015 0.99855
3286.73176 0.99858
3285.30337 0.99859
3283.87497 0.99858
3282.44658 0.99856
3281.01819 0.99853
3279.58980 0.99850
3278.16140 0.99848
3276.73301 0.99847
3275.30462 0.99847
3273.87622 0.99849
3272.44783 0.99852
3271.01944 0.99856
3269.59105 0.99860
3268.16265 0.99864
3266.73426 0.99868
3265.30587 0.99872
3263.87747 0.99878
3262.44908 0.99884
3261.02069 0.99891
3259.59230 0.99898
3258.16390 0.99905
3256.73551 0.99912
3255.30712 0.99918
3253.87873 0.99924
3252.45033 0.99929
3251.02194 0.99933
3249.59355 0.99936
3248.16515 0.99939
3246.73676 0.99941
3245.30837 0.99942
3243.87998 0.99943
3242.45158 0.99943
3241.02319 0.99944
3239.59480 0.99946
3238.16640 0.99948
3236.73801 0.99952
3235.30962 0.99956
3233.88123 0.99962
3232.45283 0.99969
3231.02444 0.99976
3229.59605 0.99982
3228.16766 0.99986
3226.73926 0.99989
3225.31087 0.99990
3223.88248 0.99989
3222.45408 0.99987
3221.02569 0.99984
3219.59730 0.99981
3218.16891 0.99977
3216.74051 0.99973
3215.31212 0.99968
3213.88373 0.99964
3212.45534 0.99961
3211.02694 0.99957
3209.59855 0.99953
3208.17016 0.99950
3206.74176 0.99946
3205.31337 0.99942
3203.88498 0.99938
3202.45659 0.99933
3201.02819 0.99928
3199.59980 0.99922
3198.17141 0.99917
3196.74301 0.99913
3195.31462 0.99909
3193.88623 0.99905
3192.45784 0.99901
3191.02944 0.99896
3189.60105 0.99890
3188.17266 0.99884
3186.74427 0.99876
3185.31587 0.99867
3183.88748 0.99858
3182.45909 0.99847
3181.03069 0.99837
3179.60230 0.99826
3178.17391 0.99815
3176.74552 0.99803
3175.31712 0.99791
3173.88873 0.99779
3172.46034 0.99766
3171.03194 0.99754
3169.60355 0.99744
3168.17516 0.99735
3166.74677 0.99726
3165.31837 0.99719
3163.88998 0.99713
3162.46159 0.99707
3161.03320 0.99701
3159.60480 0.99695
3158.17641 0.99688
3156.74802 0.99681
3155.31962 0.99674
3153.89123 0.99666
3152.46284 0.99657
3151.03445 0.99648
3149.60605 0.99637
3148.17766 0.99624
3146.74927 0.99610
3145.32087 0.99595
3143.89248 0.99579
3142.46409 0.99564
3141.03570 0.99550
3139.60730 0.99538
3138.17891 0.99528
3136.75052 0.99519
3135.32213 0.99511
3133.89373 0.99503
3132.46534 0.99495
3131.03695 0.99486
3129.60855 0.99475
3128.18016 0.99463
3126.75177 0.99451
3125.32338 0.99438
3123.89498 0.99425
3122.46659 0.99412
3121.03820 0.99399
3119.60981 0.99387
3118.18141 0.99375
3116.75302 0.99365
3115.32463 0.99354
3113.89623 0.99345
3112.46784 0.99336
3111.03945 0.99328
3109.61106 0.99321
3108.18266 0.99315
3106.75427 0.99310
3105.32588 0.99303
3103.89748 0.99296
3102.46909 0.99288
3101.04070 0.99278
3099.61231 0.99267
3098.18391 0.99255
3096.75552 0.99241
3095.32713 0.99227
3093.89874 0.99213
3092.47034 0.99199
3091.04195 0.99185
3089.61356 0.99172
3088.18516 0.99160
3086.75677 0.99149
3085.32838 0.99139
3083.89999 0.99130
3082.47159 0.99123
3081.04320 0.99119
3079.61481 0.99115
3078.18641 0.99112
3076.75802 0.99109
3075.32963 0.99104
3073.90124 0.99099
3072.47284 0.99091
3071.04445 0.99082
3069.61606 0.99072
3068.18767 0.99061
3066.75927 0.99051
3065.33088 0.99041
3063.90249 0.99034
3062.47409 0.99027
3061.04570 0.99022
3059.61731 0.99018
3058.18892 0.99014
3056.76052 0.99011
3055.33213 0.99008
3053.90374 0.99004
3052.47535 0.99001
3051.04695 0.98997
3049.61856 0.98992
3048.19017 0.98987
3046.76177 0.98982
3045.33338 0.98977
3043.90499 0.98973
3042.47660 0.98970
3041.04820 0.98967
3039.61981 0.98966
3038.19142 0.98965
3036.76302 0.98964
3035.33463 0.98962
3033.90624 0.98959
3032.47785 0.98955
3031.04945 0.98950
3029.62106 0.98946
3028.19267 0.98942
3026.76428 0.98940
3025.33588 0.98939
3023.90749 0.98940
3022.47910 0.98942
3021.05070 0.98945
3019.62231 0.98946
3018.19392 0.98947
3016.76553 0.98946
3015.33713 0.98944
3013.90874 0.98942
3012.48035 0.98941
3011.05195 0.98942
3009.62356 0.98944
3008.19517 0.98948
3006.76678 0.98953
3005.33838 0.98959
3003.90999 0.98964
3002.48160 0.98967
3001.05321 0.98968
2999.62481 0.98966
2998.19642 0.98962
2996.76803 0.98956
2995.33963 0.98949
2993.91124 0.98940
2992.48285 0.98930
2991.05446 0.98920
2989.62606 0.98911
2988.19767 0.98901
2986.76928 0.98891
2985.34088 0.98881
2983.91249 0.98870
2982.48410 0.98859
2981.05571 0.98845
2979.62731 0.98831
2978.19892 0.98814
2976.77053 0.98795
2975.34214 0.98774
2973.91374 0.98752
2972.48535 0.98730
2971.05696 0.98707
2969.62856 0.98685
2968.20017 0.98663
2966.77178 0.98643
2965.34339 0.98624
2963.91499 0.98607
2962.48660 0.98591
2961.05821 0.98577
2959.62982 0.98566
2958.20142 0.98557
2956.77303 0.98550
2955.34464 0.98546
2953.91624 0.98544
2952.48785 0.98545
2951.05946 0.98546
2949.63107 0.98548
2948.20267 0.98550
2946.77428 0.98551
2945.34589 0.98550
2943.91749 0.98548
2942.48910 0.98545
2941.06071 0.98540
2939.63232 0.98534
2938.20392 0.98528
2936.77553 0.98523
2935.34714 0.98518
2933.91875 0.98515
2932.49035 0.98514
2931.06196 0.98515
2929.63357 0.98519
2928.20517 0.98526
2926.77678 0.98534
2925.34839 0.98545
2923.92000 0.98557
2922.49160 0.98570
2921.06321 0.98584
2919.63482 0.98600
2918.20642 0.98616
2916.77803 0.98633
2915.34964 0.98651
2913.92125 0.98669
2912.49285 0.98686
2911.06446 0.98702
2909.63607 0.98717
2908.20768 0.98730
2906.77928 0.98742
2905.35089 0.98751
2903.92250 0.98759
2902.49410 0.98764
2901.06571 0.98768
2899.63732 0.98771
2898.20893 0.98772
2896.78053 0.98771
2895.35214 0.98770
2893.92375 0.98768
2892.49536 0.98768
2891.06696 0.98768
2889.63857 0.98770
2888.21018 0.98773
2886.78178 0.98777
2885.35339 0.98782
2883.92500 0.98788
2882.49661 0.98793
2881.06821 0.98797
2879.63982 0.98799
2878.21143 0.98800
2876.78303 0.98800
2875.35464 0.98801
2873.92625 0.98802
2872.49786 0.98804
2871.06946 0.98809
2869.64107 0.98814
2868.21268 0.98822
2866.78429 0.98830
2865.35589 0.98837
2863.92750 0.98843
2862.49911 0.98848
2861.07071 0.98851
2859.64232 0.98852
2858.21393 0.98852
2856.78554 0.98852
2855.35714 0.98853
2853.92875 0.98856
2852.50036 0.98860
2851.07196 0.98867
2849.64357 0.98877
2848.21518 0.98888
2846.78679 0.98901
2845.35839 0.98914
2843.93000 0.98928
2842.50161 0.98942
2841.07322 0.98955
2839.64482 0.98967
2838.21643 0.98978
2836.78804 0.98989
2835.35964 0.98998
2833.93125 0.99006
2832.50286 0.99014
2831.07447 0.99022
2829.64607 0.99031
2828.21768 0.99039
2826.78929 0.99048
2825.36089 0.99056
2823.93250 0.99064
2822.50411 0.99070
2821.07572 0.99076
2819.64732 0.99080
2818.21893 0.99083
2816.79054 0.99086
2815.36215 0.99089
2813.93375 0.99092
2812.50536 0.99096
2811.07697 0.99101
2809.64857 0.99107
2808.22018 0.99113
2806.79179 0.99119
2805.36340 0.99125
2803.93500 0.99130
2802.50661 0.99135
2801.07822 0.99139
2799.64983 0.99142
2798.22143 0.99145
2796.79304 0.99149
2795.36465 0.99154
2793.93625 0.99159
2792.50786 0.99164
2791.07947 0.99170
2789.65108 0.99176
2788.22268 0.99182
2786.79429 0.99188
2785.36590 0.99193
2783.93750 0.99198
2782.50911 0.99202
2781.08072 0.99206
2779.65233 0.99209
2778.22393 0.99212
2776.79554 0.99215
2775.36715 0.99217
2773.93876 0.99220
2772.51036 0.99223
2771.08197 0.99226
2769.65358 0.99230
2768.22518 0.99233
2766.79679 0.99238
2765.36840 0.99242
2763.94001 0.99246
2762.51161 0.99250
2761.08322 0.99254
2759.65483 0.99257
2758.22643 0.99260
2756.79804 0.99262
2755.36965 0.99264
2753.94126 0.99265
2752.51286 0.99265
2751.08447 0.99265
2749.65608 0.99265
2748.22769 0.99266
2746.79929 0.99268
2745.37090 0.99270
2743.94251 0.99274
2742.51411 0.99278
2741.08572 0.99283
2739.65733 0.99288
2738.22894 0.99292
2736.80054 0.99295
2735.37215 0.99298
2733.94376 0.99301
2732.51537 0.99303
2731.08697 0.99306
2729.65858 0.99309
2728.23019 0.99312
2726.80179 0.99315
2725.37340 0.99319
2723.94501 0.99323
2722.51662 0.99326
2721.08822 0.99329
2719.65983 0.99331
2718.23144 0.99334
2716.80304 0.99336
2715.37465 0.99339
2713.94626 0.99341
2712.51787 0.99344
2711.08947 0.99347
2709.66108 0.99350
2708.23269 0.99354
2706.80430 0.99358
2705.37590 0.99362
2703.94751 0.99367
2702.51912 0.99371
2701.09072 0.99374
2699.66233 0.99376
2698.23394 0.99377
2696.80555 0.99377
2695.37715 0.99378
2693.94876 0.99378
2692.52037 0.99379
2691.09197 0.99382
2689.66358 0.99385
2688.23519 0.99389
2686.80680 0.99393
2685.37840 0.99397
2683.95001 0.99400
2682.52162 0.99402
2681.09323 0.99404
2679.66483 0.99406
2678.23644 0.99407
2676.80805 0.99410
2675.37965 0.99412
2673.95126 0.99415
2672.52287 0.99418
2671.09448 0.99421
2669.66608 0.99425
2668.23769 0.99428
2666.80930 0.99432
2665.38090 0.99435
2663.95251 0.99438
2662.52412 0.99441
2661.09573 0.99445
2659.66733 0.99448
2658.23894 0.99452
2656.81055 0.99455
2655.38216 0.99459
2653.95376 0.99462
2652.52537 0.99464
2651.09698 0.99466
2649.66858 0.99468
2648.24019 0.99469
2646.81180 0.99471
2645.38341 0.99473
2643.95501 0.99475
2642.52662 0.99477
2641.09823 0.99479
2639.66984 0.99480
2638.24144 0.99482
2636.81305 0.99483
2635.38466 0.99484
2633.95626 0.99486
2632.52787 0.99489
2631.09948 0.99492
2629.67109 0.99496
2628.24269 0.99500
2626.81430 0.99504
2625.38591 0.99507
2623.95751 0.99510
2622.52912 0.99513
2621.10073 0.99515
2619.67234 0.99517
2618.24394 0.99519
2616.81555 0.99521
2615.38716 0.99524
2613.95877 0.99527
2612.53037 0.99531
2611.10198 0.99534
2609.67359 0.99537
2608.24519 0.99540
2606.81680 0.99543
2605.38841 0.99546
2603.96002 0.99549
2602.53162 0.99552
2601.10323 0.99554
2599.67484 0.99556
2598.24644 0.99558
2596.81805 0.99560
2595.38966 0.99563
2593.96127 0.99565
2592.53287 0.99567
2591.10448 0.99569
2589.67609 0.99571
2588.24770 0.99573
2586.81930 0.99575
2585.39091 0.99577
2583.96252 0.99579
2582.53412 0.99581
2581.10573 0.99583
2579.67734 0.99587
2578.24895 0.99591
2576.82055 0.99595
2575.39216 0.99599
2573.96377 0.99603
2572.53537 0.99607
2571.10698 0.99611
2569.67859 0.99614
2568.25020 0.99617
2566.82180 0.99620
2565.39341 0.99623
2563.96502 0.99625
2562.53663 0.99627
2561.10823 0.99628
2559.67984 0.99630
2558.25145 0.99631
2556.82305 0.99631
2555.39466 0.99631
2553.96627 0.99631
2552.53788 0.99631
2551.10948 0.99631
2549.68109 0.99632
2548.25270 0.99634
2546.82431 0.99636
2545.39591 0.99638
2543.96752 0.99642
2542.53913 0.99647
2541.11073 0.99651
2539.68234 0.99655
2538.25395 0.99657
2536.82556 0.99659
2535.39716 0.99660
2533.96877 0.99660
2532.54038 0.99660
2531.11198 0.99659
2529.68359 0.99658
2528.25520 0.99657
2526.82681 0.99657
2525.39841 0.99657
2523.97002 0.99657
2522.54163 0.99657
2521.11324 0.99658
2519.68484 0.99659
2518.25645 0.99662
2516.82806 0.99665
2515.39966 0.99668
2513.97127 0.99673
2512.54288 0.99678
2511.11449 0.99683
2509.68609 0.99689
2508.25770 0.99693
2506.82931 0.99696
2505.40091 0.99699
2503.97252 0.99700
2502.54413 0.99699
2501.11574 0.99698
2499.68734 0.99696
2498.25895 0.99694
2496.83056 0.99693
2495.40217 0.99693
2493.97377 0.99693
2492.54538 0.99695
2491.11699 0.99696
2489.68859 0.99697
2488.26020 0.99698
2486.83181 0.99699
2485.40342 0.99699
2483.97502 0.99700
2482.54663 0.99701
2481.11824 0.99702
2479.68985 0.99704
2478.26145 0.99707
2476.83306 0.99711
2475.40467 0.99715
2473.97627 0.99719
2472.54788 0.99724
2471.11949 0.99728
2469.69110 0.99732
2468.26270 0.99736
2466.83431 0.99739
2465.40592 0.99742
2463.97752 0.99744
2462.54913 0.99746
2461.12074 0.99747
2459.69235 0.99748
2458.26395 0.99748
2456.83556 0.99748
2455.40717 0.99748
2453.97878 0.99748
2452.55038 0.99747
2451.12199 0.99747
2449.69360 0.99746
2448.26520 0.99745
2446.83681 0.99744
2445.40842 0.99743
2443.98003 0.99742
2442.55163 0.99742
2441.12324 0.99743
2439.69485 0.99745
2438.26645 0.99748
2436.83806 0.99753
2435.40967 0.99758
2433.98128 0.99764
2432.55288 0.99769
2431.12449 0.99773
2429.69610 0.99775
2428.26771 0.99775
2426.83931 0.99774
2425.41092 0.99773
2423.98253 0.99772
2422.55413 0.99772
2421.12574 0.99772
2419.69735 0.99773
2418.26896 0.99774
2416.84056 0.99776
2415.41217 0.99778
2413.98378 0.99780
2412.55538 0.99781
2411.12699 0.99784
2409.69860 0.99788
2408.27021 0.99792
2406.84181 0.99798
2405.41342 0.99804
2403.98503 0.99808
2402.55664 0.99811
2401.12824 0.99812
2399.69985 0.99811
2398.27146 0.99808
2396.84306 0.99805
2395.41467 0.99802
2393.98628 0.99801
2392.55789 0.99800
2391.12949 0.99801
2389.70110 0.99802
2388.27271 0.99802
2386.84432 0.99801
2385.41592 0.99797
2383.98753 0.99793
2382.55914 0.99787
2381.13074 0.99781
2379.70235 0.99775
2378.27396 0.99769
2376.84557 0.99763
2375.41717 0.99757
2373.98878 0.99750
2372.56039 0.99743
2371.13199 0.99735
2369.70360 0.99727
2368.27521 0.99720
2366.84682 0.99714
2365.41842 0.99710
2363.99003 0.99707
2362.56164 0.99706
2361.13325 0.99706
2359.70485 0.99708
2358.27646 0.99712
2356.84807 0.99718
2355.41967 0.99726
2353.99128 0.99735
2352.56289 0.99744
2351.13450 0.99754
2349.70610 0.99761
2348.27771 0.99766
2346.84932 0.99768
2345.42092 0.99768
2343.99253 0.99765
2342.56414 0.99761
2341.13575 0.99758
2339.70735 0.99754
2338.27896 0.99752
2336.85057 0.99752
2335.42218 0.99752
2333.99378 0.99753
2332.56539 0.99755
2331.13700 0.99759
2329.70860 0.99764
2328.28021 0.99770
2326.85182 0.99777
2325.42343 0.99785
2323.99503 0.99793
2322.56664 0.99801
2321.13825 0.99807
2319.70986 0.99811
2318.28146 0.99813
2316.85307 0.99813
2315.42468 0.99813
2313.99628 0.99812
2312.56789 0.99813
2311.13950 0.99816
2309.71111 0.99820
2308.28271 0.99826
2306.85432 0.99833
2305.42593 0.99840
2303.99753 0.99845
2302.56914 0.99848
2301.14075 0.99849
2299.71236 0.99849
2298.28396 0.99847
2296.85557 0.99846
2295.42718 0.99845
2293.99879 0.99847
2292.57039 0.99850
2291.14200 0.99856
2289.71361 0.99863
2288.28521 0.99871
2286.85682 0.99879
2285.42843 0.99885
2284.00004 0.99891
2282.57164 0.99894
2281.14325 0.99896
2279.71486 0.99897
2278.28646 0.99897
2276.85807 0.99896
2275.42968 0.99895
2274.00129 0.99894
2272.57289 0.99893
2271.14450 0.99892
2269.71611 0.99891
2268.28772 0.99891
2266.85932 0.99891
2265.43093 0.99893
2264.00254 0.99895
2262.57414 0.99897
2261.14575 0.99899
2259.71736 0.99900
2258.28897 0.99900
2256.86057 0.99898
2255.43218 0.99896
2254.00379 0.99894
2252.57539 0.99892
2251.14700 0.99890
2249.71861 0.99889
2248.29022 0.99889
2246.86182 0.99888
2245.43343 0.99887
2244.00504 0.99885
2242.57665 0.99882
2241.14825 0.99880
2239.71986 0.99878
2238.29147 0.99877
2236.86307 0.99878
2235.43468 0.99879
2234.00629 0.99881
2232.57790 0.99882
2231.14950 0.99883
2229.72111 0.99882
2228.29272 0.99879
2226.86433 0.99876
2225.43593 0.99873
2224.00754 0.99872
2222.57915 0.99874
2221.15075 0.99878
2219.72236 0.99885
2218.29397 0.99893
2216.86558 0.99901
2215.43718 0.99908
2214.00879 0.99913
2212.58040 0.99913
2211.15200 0.99911
2209.72361 0.99905
2208.29522 0.99897
2206.86683 0.99891
2205.43843 0.99888
2204.01004 0.99890
2202.58165 0.99895
2201.15326 0.99903
2199.72486 0.99912
2198.29647 0.99920
2196.86808 0.99927
2195.43968 0.99931
2194.01129 0.99933
2192.58290 0.99932
2191.15451 0.99930
2189.72611 0.99928
2188.29772 0.99927
2186.86933 0.99927
2185.44093 0.99927
2184.01254 0.99927
2182.58415 0.99928
2181.15576 0.99929
2179.72736 0.99932
2178.29897 0.99938
2176.87058 0.99945
2175.44219 0.99953
2174.01379 0.99963
2172.58540 0.99972
2171.15701 0.99979
2169.72861 0.99984
2168.30022 0.99984
2166.87183 0.99980
2165.44344 0.99971
2164.01504 0.99961
2162.58665 0.99951
2161.15826 0.99943
2159.72987 0.99937
2158.30147 0.99933
2156.87308 0.99933
2155.44469 0.99937
2154.01629 0.99943
2152.58790 0.99949
2151.15951 0.99953
2149.73112 0.99952
2148.30272 0.99948
2146.87433 0.99940
2145.44594 0.99931
2144.01754 0.99921
2142.58915 0.99912
2141.16076 0.99904
2139.73237 0.99900
2138.30397 0.99901
2136.87558 0.99905
2135.44719 0.99912
2134.01880 0.99918
2132.59040 0.99923
2131.16201 0.99926
2129.73362 0.99928
2128.30522 0.99929
2126.87683 0.99929
2125.44844 0.99927
2124.02005 0.99925
2122.59165 0.99922
2121.16326 0.99919
2119.73487 0.99917
2118.30647 0.99916
2116.87808 0.99914
2115.44969 0.99914
2114.02130 0.99915
2112.59290 0.99918
2111.16451 0.99922
2109.73612 0.99926
2108.30773 0.99930
2106.87933 0.99932
2105.45094 0.99935
2104.02255 0.99936
2102.59415 0.99939
2101.16576 0.99941
2099.73737 0.99944
2098.30898 0.99947
2096.88058 0.99951
2095.45219 0.99954
2094.02380 0.99957
2092.59540 0.99958
2091.16701 0.99958
2089.73862 0.99957
2088.31023 0.99956
2086.88183 0.99955
2085.45344 0.99955
2084.02505 0.99956
2082.59666 0.99957
2081.16826 0.99957
2079.73987 0.99958
2078.31148 0.99957
2076.88308 0.99955
2075.45469 0.99951
2074.02630 0.99945
2072.59791 0.99938
2071.16951 0.99930
2069.74112 0.99922
2068.31273 0.99916
2066.88434 0.99911
2065.45594 0.99909
2064.02755 0.99910
2062.59916 0.99915
2061.17076 0.99923
2059.74237 0.99932
2058.31398 0.99941
2056.88559 0.99949
2055.45719 0.99953
2054.02880 0.99955
2052.60041 0.99953
2051.17201 0.99949
2049.74362 0.99945
2048.31523 0.99941
2046.88684 0.99940
2045.45844 0.99944
2044.03005 0.99950
2042.60166 0.99958
2041.17327 0.99965
2039.74487 0.99970
2038.31648 0.99972
2036.88809 0.99970
2035.45969 0.99966
2034.03130 0.99961
2032.60291 0.99956
2031.17452 0.99954
2029.74612 0.99954
2028.31773 0.99955
2026.88934 0.99957
2025.46094 0.99958
2024.03255 0.99957
2022.60416 0.99955
2021.17577 0.99953
2019.74737 0.99951
2018.31898 0.99950
2016.89059 0.99950
2015.46220 0.99950
2014.03380 0.99951
2012.60541 0.99949
2011.17702 0.99945
2009.74862 0.99938
2008.32023 0.99929
2006.89184 0.99920
2005.46345 0.99910
2004.03505 0.99902
2002.60666 0.99897
2001.17827 0.99895
1999.74988 0.99897
1998.32148 0.99903
1996.89309 0.99911
1995.46470 0.99920
1994.03630 0.99930
1992.60791 0.99940
1991.17952 0.99948
1989.75113 0.99953
1988.32273 0.99954
1986.89434 0.99951
1985.46595 0.99947
1984.03755 0.99944
1982.60916 0.99943
1981.18077 0.99944
1979.75238 0.99945
1978.32398 0.99945
1976.89559 0.99943
1975.46720 0.99937
1974.03881 0.99926
1972.61041 0.99912
1971.18202 0.99895
1969.75363 0.99878
1968.32523 0.99863
1966.89684 0.99854
1965.46845 0.99851
1964.04006 0.99853
1962.61166 0.99859
1961.18327 0.99866
1959.75488 0.99872
1958.32648 0.99876
1956.89809 0.99879
1955.46970 0.99881
1954.04131 0.99881
1952.61291 0.99882
1951.18452 0.99881
1949.75613 0.99881
1948.32774 0.99882
1946.89934 0.99884
1945.47095 0.99886
1944.04256 0.99886
1942.61416 0.99885
1941.18577 0.99883
1939.75738 0.99882
1938.32899 0.99881
1936.90059 0.99881
1935.47220 0.99881
1934.04381 0.99881
1932.61541 0.99882
1931.18702 0.99884
1929.75863 0.99887
1928.33024 0.99891
1926.90184 0.99894
1925.47345 0.99897
1924.04506 0.99899
1922.61667 0.99902
1921.18827 0.99903
1919.75988 0.99903
1918.33149 0.99902
1916.90309 0.99901
1915.47470 0.99899
1914.04631 0.99897
1912.61792 0.99896
1911.18952 0.99894
1909.76113 0.99891
1908.33274 0.99888
1906.90435 0.99884
1905.47595 0.99881
1904.04756 0.99880
1902.61917 0.99880
1901.19077 0.99882
1899.76238 0.99886
1898.33399 0.99892
1896.90560 0.99898
1895.47720 0.99904
1894.04881 0.99908
1892.62042 0.99909
1891.19202 0.99909
1889.76363 0.99906
1888.33524 0.99904
1886.90685 0.99901
1885.47845 0.99900
1884.05006 0.99900
1882.62167 0.99901
1881.19328 0.99903
1879.76488 0.99905
1878.33649 0.99906
1876.90810 0.99906
1875.47970 0.99904
1874.05131 0.99902
1872.62292 0.99900
1871.19453 0.99898
1869.76613 0.99897
1868.33774 0.99897
1866.90935 0.99897
1865.48095 0.99898
1864.05256 0.99899
1862.62417 0.99900
1861.19578 0.99900
1859.76738 0.99901
1858.33899 0.99901
1856.91060 0.99901
1855.48221 0.99901
1854.05381 0.99900
1852.62542 0.99899
1851.19703 0.99898
1849.76863 0.99896
1848.34024 0.99893
1846.91185 0.99891
1845.48346 0.99889
1844.05506 0.99888
1842.62667 0.99887
1841.19828 0.99887
1839.76989 0.99888
1838.34149 0.99889
1836.91310 0.99891
1835.48471 0.99893
1834.05631 0.99894
1832.62792 0.99896
1831.19953 0.99897
1829.77114 0.99898
1828.34274 0.99900
1826.91435 0.99902
1825.48596 0.99903
1824.05756 0.99903
1822.62917 0.99905
1821.20078 0.99906
1819.77239 0.99908
1818.34399 0.99910
1816.91560 0.99912
1815.48721 0.99914
1814.05882 0.99915
1812.63042 0.99915
1811.20203 0.99914
1809.77364 0.99912
1808.34524 0.99911
1806.91685 0.99909
1805.48846 0.99909
1804.06007 0.99910
1802.63167 0.99911
1801.20328 0.99913
1799.77489 0.99914
1798.34649 0.99915
1796.91810 0.99915
1795.48971 0.99915
1794.06132 0.99913
1792.63292 0.99912
1791.20453 0.99911
1789.77614 0.99911
1788.34775 0.99911
1786.91935 0.99911
1785.49096 0.99911
1784.06257 0.99911
1782.63417 0.99911
1781.20578 0.99910
1779.77739 0.99909
1778.34900 0.99909
1776.92060 0.99909
1775.49221 0.99910
1774.06382 0.99911
1772.63542 0.99913
1771.20703 0.99915
1769.77864 0.99918
1768.35025 0.99920
1766.92185 0.99923
1765.49346 0.99925
1764.06507 0.99927
1762.63668 0.99928
1761.20828 0.99929
1759.77989 0.99929
1758.35150 0.99927
1756.92310 0.99925
1755.49471 0.99922
1754.06632 0.99919
1752.63793 0.99916
1751.20953 0.99914
1749.78114 0.99912
1748.35275 0.99912
1746.92436 0.99914
1745.49596 0.99917
1744.06757 0.99921
1742.63918 0.99924
1741.21078 0.99928
1739.78239 0.99931
1738.35400 0.99934
1736.92561 0.99937
1735.49721 0.99940
1734.06882 0.99944
1732.64043 0.99948
1731.21203 0.99953
1729.78364 0.99957
1728.35525 0.99961
1726.92686 0.99964
1725.49846 0.99966
1724.07007 0.99966
1722.64168 0.99965
1721.21329 0.99965
1719.78489 0.99965
1718.35650 0.99967
1716.92811 0.99970
1715.49971 0.99974
1714.07132 0.99980
1712.64293 0.99985
1711.21454 0.99990
1709.78614 0.99994
1708.35775 0.99995
1706.92936 0.99994
1705.50096 0.99989
1704.07257 0.99982
1702.64418 0.99973
1701.21579 0.99960
1699.78739 0.99945
1698.35900 0.99929
1696.93061 0.99913
1695.50222 0.99895
1694.07382 0.99877
1692.64543 0.99857
1691.21704 0.99835
1689.78864 0.99810
1688.36025 0.99782
1686.93186 0.99752
1685.50347 0.99719
1684.07507 0.99683
1682.64668 0.99647
1681.21829 0.99612
1679.78990 0.99576
1678.36150 0.99541
1676.93311 0.99504
1675.50472 0.99465
1674.07632 0.99422
1672.64793 0.99374
1671.21954 0.99319
1669.79115 0.99257
1668.36275 0.99189
1666.93436 0.99115
1665.50597 0.99038
1664.07757 0.98962
1662.64918 0.98888
1661.22079 0.98821
1659.79240 0.98764
1658.36400 0.98720
1656.93561 0.98691
1655.50722 0.98678
1654.07883 0.98679
1652.65043 0.98694
1651.22204 0.98719
1649.79365 0.98752
1648.36525 0.98789
1646.93686 0.98830
1645.50847 0.98872
1644.08008 0.98914
1642.65168 0.98957
1641.22329 0.99000
1639.79490 0.99046
1638.36650 0.99094
1636.93811 0.99144
1635.50972 0.99197
1634.08133 0.99251
1632.65293 0.99306
1631.22454 0.99361
1629.79615 0.99414
1628.36776 0.99464
1626.93936 0.99511
1625.51097 0.99553
1624.08258 0.99590
1622.65418 0.99622
1621.22579 0.99649
1619.79740 0.99670
1618.36901 0.99688
1616.94061 0.99702
1615.51222 0.99712
1614.08383 0.99720
1612.65543 0.99725
1611.22704 0.99728
1609.79865 0.99730
1608.37026 0.99728
1606.94186 0.99723
1605.51347 0.99715
1604.08508 0.99702
1602.65669 0.99685
1601.22829 0.99666
1599.79990 0.99645
1598.37151 0.99624
1596.94311 0.99606
1595.51472 0.99592
1594.08633 0.99586
1592.65794 0.99587
1591.22954 0.99596
1589.80115 0.99610
1588.37276 0.99629
1586.94437 0.99650
1585.51597 0.99670
1584.08758 0.99686
1582.65919 0.99698
1581.23079 0.99704
1579.80240 0.99703
1578.37401 0.99696
1576.94562 0.99682
1575.51722 0.99662
1574.08883 0.99637
1572.66044 0.99609
1571.23204 0.99578
1569.80365 0.99546
1568.37526 0.99512
1566.94687 0.99475
1565.51847 0.99436
1564.09008 0.99392
1562.66169 0.99343
1561.23330 0.99288
1559.80490 0.99226
1558.37651 0.99158
1556.94812 0.99089
1555.51972 0.99021
1554.09133 0.98956
1552.66294 0.98896
1551.23455 0.98843
1549.80615 0.98800
1548.37776 0.98769
1546.94937 0.98749
1545.52097 0.98740
1544.09258 0.98742
1542.66419 0.98754
1541.23580 0.98775
1539.80740 0.98805
1538.37901 0.98840
1536.95062 0.98879
1535.52223 0.98920
1534.09383 0.98962
1532.66544 0.99003
1531.23705 0.99043
1529.80865 0.99078
1528.38026 0.99108
1526.95187 0.99133
1525.52348 0.99152
1524.09508 0.99168
1522.66669 0.99181
1521.23830 0.99192
1519.80991 0.99203
1518.38151 0.99218
1516.95312 0.99236
1515.52473 0.99259
1514.09633 0.99286
1512.66794 0.99316
1511.23955 0.99348
1509.81116 0.99379
1508.38276 0.99409
1506.95437 0.99436
1505.52598 0.99461
1504.09758 0.99482
1502.66919 0.99499
1501.24080 0.99513
1499.81241 0.99525
1498.38401 0.99537
1496.95562 0.99548
1495.52723 0.99559
1494.09884 0.99570
1492.67044 0.99582
1491.24205 0.99593
1489.81366 0.99603
1488.38526 0.99611
1486.95687 0.99616
1485.52848 0.99616
1484.10009 0.99612
1482.67169 0.99603
1481.24330 0.99589
1479.81491 0.99572
1478.38651 0.99552
1476.95812 0.99532
1475.52973 0.99511
1474.10134 0.99492
1472.67294 0.99474
1471.24455 0.99459
1469.81616 0.99446
1468.38777 0.99435
1466.95937 0.99426
1465.53098 0.99416
1464.10259 0.99407
1462.67419 0.99400
1461.24580 0.99394
1459.81741 0.99390
1458.38902 0.99388
1456.96062 0.99390
1455.53223 0.99394
1454.10384 0.99400
1452.67544 0.99406
1451.24705 0.99411
1449.81866 0.99414
1448.39027 0.99415
1446.96187 0.99413
1445.53348 0.99411
1444.10509 0.99408
1442.67670 0.99407
1441.24830 0.99406
1439.81991 0.99408
1438.39152 0.99412
1436.96312 0.99418
1435.53473 0.99424
1434.10634 0.99429
1432.67795 0.99433
1431.24955 0.99435
1429.82116 0.99435
1428.39277 0.99432
1426.96438 0.99428
1425.53598 0.99423
1424.10759 0.99416
1422.67920 0.99410
1421.25080 0.99403
1419.82241 0.99398
1418.39402 0.99392
1416.96563 0.99388
1415.53723 0.99384
1414.10884 0.99380
1412.68045 0.99377
1411.25205 0.99374
1409.82366 0.99372
1408.39527 0.99370
1406.96688 0.99368
1405.53848 0.99367
1404.11009 0.99366
1402.68170 0.99367
1401.25331 0.99369
1399.82491 0.99373
1398.39652 0.99378
1396.96813 0.99385
1395.53973 0.99393
1394.11134 0.99403
1392.68295 0.99413
1391.25456 0.99423
1389.82616 0.99434
1388.39777 0.99444
1386.96938 0.99455
1385.54098 0.99465
1384.11259 0.99474
1382.68420 0.99483
1381.25581 0.99490
1379.82741 0.99496
1378.39902 0.99500
1376.97063 0.99504
1375.54224 0.99506
1374.11384 0.99507
1372.68545 0.99509
1371.25706 0.99510
1369.82866 0.99511
1368.40027 0.99513
1366.97188 0.99515
1365.54349 0.99517
1364.11509 0.99520
1362.68670 0.99523
1361.25831 0.99526
1359.82992 0.99529
1358.40152 0.99532
1356.97313 0.99534
1355.54474 0.99536
1354.11634 0.99537
1352.68795 0.99537
1351.25956 0.99537
1349.83117 0.99537
1348.40277 0.99535
1346.97438 0.99534
1345.54599 0.99532
1344.11759 0.99530
1342.68920 0.99527
1341.26081 0.99525
1339.83242 0.99522
1338.40402 0.99519
1336.97563 0.99517
1335.54724 0.99516
1334.11885 0.99516
1332.69045 0.99517
1331.26206 0.99518
1329.83367 0.99520
1328.40527 0.99522
1326.97688 0.99524
1325.54849 0.99526
1324.12010 0.99526
1322.69170 0.99526
1321.26331 0.99526
1319.83492 0.99526
1318.40652 0.99527
1316.97813 0.99528
1315.54974 0.99529
1314.12135 0.99532
1312.69295 0.99534
1311.26456 0.99537
1309.83617 0.99538
1308.40778 0.99539
1306.97938 0.99538
1305.55099 0.99537
1304.12260 0.99535
1302.69420 0.99533
1301.26581 0.99530
1299.83742 0.99526
1298.40903 0.99522
1296.98063 0.99517
1295.55224 0.99510
1294.12385 0.99500
1292.69545 0.99488
1291.26706 0.99474
1289.83867 0.99459
1288.41028 0.99444
1286.98188 0.99432
1285.55349 0.99422
1284.12510 0.99415
1282.69671 0.99413
1281.26831 0.99414
1279.83992 0.99417
1278.41153 0.99421
1276.98313 0.99426
1275.55474 0.99429
1274.12635 0.99432
1272.69796 0.99433
1271.26956 0.99433
1269.84117 0.99434
1268.41278 0.99434
1266.98439 0.99435
1265.55599 0.99435
1264.12760 0.99435
1262.69921 0.99434
1261.27081 0.99430
1259.84242 0.99423
1258.41403 0.99413
1256.98564 0.99399
1255.55724 0.99382
1254.12885 0.99361
1252.70046 0.99339
1251.27206 0.99316
1249.84367 0.99292
1248.41528 0.99270
1246.98689 0.99249
1245.55849 0.99232
1244.13010 0.99218
1242.70171 0.99210
1241.27332 0.99207
1239.84492 0.99210
1238.41653 0.99219
1236.98814 0.99233
1235.55974 0.99251
1234.13135 0.99272
1232.70296 0.99294
1231.27457 0.99317
1229.84617 0.99338
1228.41778 0.99359
1226.98939 0.99378
1225.56099 0.99396
1224.13260 0.99412
1222.70421 0.99427
1221.27582 0.99442
1219.84742 0.99457
1218.41903 0.99472
1216.99064 0.99487
1215.56225 0.99501
1214.13385 0.99515
1212.70546 0.99529
1211.27707 0.99542
1209.84867 0.99554
1208.42028 0.99565
1206.99189 0.99574
1205.56350 0.99583
1204.13510 0.99591
1202.70671 0.99598
1201.27832 0.99605
1199.84993 0.99612
1198.42153 0.99620
1196.99314 0.99628
1195.56475 0.99636
1194.13635 0.99644
1192.70796 0.99650
1191.27957 0.99656
1189.85118 0.99660
1188.42278 0.99663
1186.99439 0.99665
1185.56600 0.99667
1184.13760 0.99668
1182.70921 0.99670
1181.28082 0.99671
1179.85243 0.99671
1178.42403 0.99669
1176.99564 0.99666
1175.56725 0.99660
1174.13886 0.99652
1172.71046 0.99643
1171.28207 0.99634
1169.85368 0.99625
1168.42528 0.99618
1166.99689 0.99611
1165.56850 0.99606
1164.14011 0.99603
1162.71171 0.99602
1161.28332 0.99603
1159.85493 0.99608
1158.42653 0.99616
1156.99814 0.99628
1155.56975 0.99643
1154.14136 0.99661
1152.71296 0.99678
1151.28457 0.99695
1149.85618 0.99709
1148.42779 0.99719
1146.99939 0.99725
1145.57100 0.99727
1144.14261 0.99724
1142.71421 0.99718
1141.28582 0.99708
1139.85743 0.99696
1138.42904 0.99681
1137.00064 0.99664
1135.57225 0.99643
1134.14386 0.99620
1132.71546 0.99593
1131.28707 0.99563
1129.85868 0.99528
1128.43029 0.99488
1127.00189 0.99443
1125.57350 0.99394
1124.14511 0.99341
1122.71672 0.99285
1121.28832 0.99230
1119.85993 0.99178
1118.43154 0.99131
1117.00314 0.99093
1115.57475 0.99065
1114.14636 0.99048
1112.71797 0.99042
1111.28957 0.99047
1109.86118 0.99060
1108.43279 0.99079
1107.00440 0.99102
1105.57600 0.99127
1104.14761 0.99152
1102.71922 0.99175
1101.29082 0.99195
1099.86243 0.99211
1098.43404 0.99224
1097.00565 0.99232
1095.57725 0.99237
1094.14886 0.99238
1092.72047 0.99236
1091.29207 0.99233
1089.86368 0.99229
1088.43529 0.99223
1087.00690 0.99217
1085.57850 0.99210
1084.15011 0.99201
1082.72172 0.99192
1081.29333 0.99183
1079.86493 0.99173
1078.43654 0.99163
1077.00815 0.99154
1075.57975 0.99147
1074.15136 0.99140
1072.72297 0.99133
1071.29458 0.99124
1069.86618 0.99112
1068.43779 0.99096
1067.00940 0.99076
1065.58100 0.99050
1064.15261 0.99019
1062.72422 0.98982
1061.29583 0.98942
1059.86743 0.98897
1058.43904 0.98850
1057.01065 0.98798
1055.58226 0.98744
1054.15386 0.98687
1052.72547 0.98628
1051.29708 0.98571
1049.86868 0.98518
1048.44029 0.98473
1047.01190 0.98437
1045.58351 0.98414
1044.15511 0.98406
1042.72672 0.98413
1041.29833 0.98435
1039.86994 0.98469
1038.44154 0.98513
1037.01315 0.98565
1035.58476 0.98622
1034.15636 0.98682
1032.72797 0.98745
1031.29958 0.98808
1029.87119 0.98872
1028.44279 0.98936
1027.01440 0.99001
1025.58601 0.99065
1024.15761 0.99127
1022.72922 0.99187
1021.30083 0.99243
1019.87244 0.99295
1018.44404 0.99341
1017.01565 0.99381
1015.58726 0.99413
1014.15887 0.99437
1012.73047 0.99454
1011.30208 0.99462
1009.87369 0.99462
1008.44529 0.99453
1007.01690 0.99436
1005.58851 0.99412
1004.16012 0.99382
1002.73172 0.99348
1001.30333 0.99312
999.87494 0.99276
998.44654 0.99242
997.01815 0.99215
995.58976 0.99196
994.16137 0.99187
992.73297 0.99188
991.30458 0.99199
989.87619 0.99218
988.44780 0.99244
987.01940 0.99273
985.59101 0.99304
984.16262 0.99334
982.73422 0.99361
981.30583 0.99385
979.87744 0.99405
978.44905 0.99421
977.02065 0.99435
975.59226 0.99447
974.16387 0.99459
972.73547 0.99471
971.30708 0.99484
969.87869 0.99498
968.45030 0.99513
967.02190 0.99529
965.59351 0.99544
964.16512 0.99559
962.73673 0.99572
961.30833 0.99583
959.87994 0.99591
958.45155 0.99597
957.02315 0.99600
955.59476 0.99602
954.16637 0.99602
952.73798 0.99602
951.30958 0.99601
949.88119 0.99600
948.45280 0.99599
947.02441 0.99598
945.59601 0.99596
944.16762 0.99593
942.73923 0.99587
941.31083 0.99577
939.88244 0.99563
938.45405 0.99545
937.02566 0.99522
935.59726 0.99497
934.16887 0.99471
932.74048 0.99446
931.31208 0.99425
929.88369 0.99409
928.45530 0.99399
927.02691 0.99395
925.59851 0.99398
924.17012 0.99404
922.74173 0.99414
921.31334 0.99426
919.88494 0.99439
918.45655 0.99453
917.02816 0.99467
915.59976 0.99480
914.17137 0.99494
912.74298 0.99506
911.31459 0.99519
909.88619 0.99531
908.45780 0.99541
907.02941 0.99551
905.60101 0.99559
904.17262 0.99567
902.74423 0.99574
901.31584 0.99581
899.88744 0.99588
898.45905 0.99594
897.03066 0.99600
895.60227 0.99606
894.17387 0.99611
892.74548 0.99615
891.31709 0.99617
889.88869 0.99618
888.46030 0.99618
887.03191 0.99618
885.60352 0.99617
884.17512 0.99616
882.74673 0.99615
881.31834 0.99613
879.88995 0.99611
878.46155 0.99606
877.03316 0.99598
875.60477 0.99587
874.17637 0.99574
872.74798 0.99559
871.31959 0.99544
869.89120 0.99530
868.46280 0.99518
867.03441 0.99510
865.60602 0.99506
864.17762 0.99504
862.74923 0.99503
861.32084 0.99501
859.89245 0.99499
858.46405 0.99496
857.03566 0.99492
855.60727 0.99487
854.17888 0.99483
852.75048 0.99480
851.32209 0.99478
849.89370 0.99477
848.46530 0.99479
847.03691 0.99481
845.60852 0.99484
844.18013 0.99487
842.75173 0.99492
841.32334 0.99496
839.89495 0.99500
838.46655 0.99505
837.03816 0.99509
835.60977 0.99513
834.18138 0.99517
832.75298 0.99520
831.32459 0.99524
829.89620 0.99528
828.46781 0.99533
827.03941 0.99539
825.61102 0.99544
824.18263 0.99550
822.75423 0.99554
821.32584 0.99557
819.89745 0.99558
818.46906 0.99555
817.04066 0.99551
815.61227 0.99545
814.18388 0.99539
812.75548 0.99534
811.32709 0.99530
809.89870 0.99529
808.47031 0.99530
807.04191 0.99533
805.61352 0.99539
804.18513 0.99545
802.75674 0.99551
801.32834 0.99556
799.89995 0.99560
798.47156 0.99562
797.04316 0.99563
795.61477 0.99562
794.18638 0.99559
792.75799 0.99555
791.32959 0.99552
789.90120 0.99548
788.47281 0.99545
787.04442 0.99543
785.61602 0.99541
784.18763 0.99540
782.75924 0.99540
781.33084 0.99541
779.90245 0.99542
778.47406 0.99542
777.04567 0.99542
775.61727 0.99542
774.18888 0.99540
772.76049 0.99537
771.33209 0.99532
769.90370 0.99526
768.47531 0.99519
767.04692 0.99511
765.61852 0.99504
764.19013 0.99499
762.76174 0.99496
761.33335 0.99496
759.90495 0.99497
758.47656 0.99501
757.04817 0.99506
755.61977 0.99512
754.19138 0.99516
752.76299 0.99519
751.33460 0.99520
749.90620 0.99519
748.47781 0.99516
747.04942 0.99513
745.62102 0.99511
744.19263 0.99509
742.76424 0.99508
741.33585 0.99508
739.90745 0.99507
738.47906 0.99508
737.05067 0.99509
735.62228 0.99510
734.19388 0.99512
732.76549 0.99515
731.33710 0.99520
729.90870 0.99527
728.48031 0.99536
727.05192 0.99545
725.62353 0.99552
724.19513 0.99557
722.76674 0.99560
721.33835 0.99560
719.90996 0.99560
718.48156 0.99558
717.05317 0.99557
715.62478 0.99557
714.19638 0.99560
712.76799 0.99565
711.33960 0.99572
709.91121 0.99579
708.48281 0.99584
707.05442 0.99588
705.62603 0.99590
704.19763 0.99589
702.76924 0.99584
701.34085 0.99574
699.91246 0.99559
698.48406 0.99541
697.05567 0.99521
695.62728 0.99503
694.19889 0.99487
692.77049 0.99477
691.34210 0.99473
689.91371 0.99475
688.48531 0.99483
687.05692 0.99496
685.62853 0.99510
684.20014 0.99524
682.77174 0.99535
681.34335 0.99543
679.91496 0.99547
678.48656 0.99546
677.05817 0.99540
675.62978 0.99528
674.20139 0.99511
672.77299 0.99492
671.34460 0.99475
669.91621 0.99463
668.48782 0.99458
667.05942 0.99462
665.63103 0.99475
664.20264 0.99496
662.77424 0.99521
661.34585 0.99546
659.91746 0.99565
658.48907 0.99577
657.06067 0.99581
655.63228 0.99580
654.20389 0.99577
652.77549 0.99573
651.34710 0.99570
649.91871 0.99570
648.49032 0.99575
647.06192 0.99584
645.63353 0.99595
644.20514 0.99606
642.77675 0.99617
641.34835 0.99627
639.91996 0.99637
638.49157 0.99647
637.06317 0.99657
635.63478 0.99666
634.20639 0.99674
632.77800 0.99680
631.34960 0.99687
629.92121 0.99693
628.49282 0.99698
627.06443 0.99703
625.63603 0.99707
624.20764 0.99709
622.77925 0.99708
621.35085 0.99706
619.92246 0.99701
618.49407 0.99696
617.06568 0.99693
615.63728 0.99693
614.20889 0.99697
612.78050 0.99704
611.35210 0.99714
609.92371 0.99724
608.49532 0.99733
607.06693 0.99739
605.63853 0.99744
604.21014 0.99746
602.78175 0.99747
601.35336 0.99749
599.92496 0.99753
598.49657 0.99760
597.06818 0.99768
595.63978 0.99775
594.21139 0.99781
592.78300 0.99785
591.35461 0.99791
589.92621 0.99799
588.49782 0.99811
587.06943 0.99827
585.64103 0.99846
584.21264 0.99867
582.78425 0.99885
581.35586 0.99897
579.92746 0.99899
578.49907 0.99889
577.07068 0.99868
575.64229 0.99841
574.21389 0.99813
572.78550 0.99789
571.35711 0.99772
569.92871 0.99764
568.50032 0.99765
567.07193 0.99775
565.64354 0.99793
564.21514 0.99812
562.78675 0.99830
561.35836 0.99842
559.92997 0.99848
558.50157 0.99850
557.07318 0.99846
555.64479 0.99838
554.21639 0.99824
552.78800 0.99807
551.35961 0.99789
549.93122 0.99774
548.50282 0.99761
547.07443 0.99753
545.64604 0.99748
544.21764 0.99747
542.78925 0.99750
541.36086 0.99756
539.93247 0.99762
538.50407 0.99767
537.07568 0.99769
535.64729 0.99770
534.21890 0.99769
532.79050 0.99768
531.36211 0.99768
529.93372 0.99772
528.50532 0.99783
527.07693 0.99799
525.64854 0.99818
524.22015 0.99837
522.79175 0.99851
521.36336 0.99856
519.93497 0.99847
518.50657 0.99821
517.07818 0.99780
515.64979 0.99726
514.22140 0.99669
512.79300 0.99616
511.36461 0.99576
509.93622 0.99552
508.50783 0.99546
507.07943 0.99556
505.65104 0.99580
504.22265 0.99612
502.79425 0.99649
501.36586 0.99685
499.93747 0.99717
498.50908 0.99741
497.08068 0.99758
495.65229 0.99769
494.22390 0.99774
492.79550 0.99771
491.36711 0.99759
489.93872 0.99744
488.51033 0.99727
487.08193 0.99714
485.65354 0.99702
484.22515 0.99687
482.79676 0.99668
481.36836 0.99643
479.93997 0.99615
478.51158 0.99585
477.08318 0.99555
475.65479 0.99529
474.22640 0.99514
472.79801 0.99516
471.36961 0.99535
469.94122 0.99566
468.51283 0.99605
467.08444 0.99644
465.65604 0.99675
464.22765 0.99695
462.79926 0.99703
461.37086 0.99704
459.94247 0.99705
458.51408 0.99711
457.08569 0.99722
455.65729 0.99738
454.22890 0.99752
452.80051 0.99761
451.37211 0.99761
449.94372 0.99747
448.51533 0.99716
447.08694 0.99676
445.65854 0.99641
444.23015 0.99623
442.80176 0.99626
441.37337 0.99648
439.94497 0.99680
438.51658 0.99715
437.08819 0.99745
435.65979 0.99766
434.23140 0.99774
432.80301 0.99768
431.37462 0.99754
429.94622 0.99745
428.51783 0.99749
427.08944 0.99766
425.66104 0.99789
424.23265 0.99809
422.80426 0.99820
421.37587 0.99825
419.94747 0.99826
418.51908 0.99827
417.09069 0.99821
415.66230 0.99807
414.23390 0.99790
412.80551 0.99776
411.37712 0.99764
409.94872 0.99752
408.52033 0.99738
407.09194 0.99738
405.66355 0.99738
404.23515 0.99738
402.80676 0.99738
401.37837 0.99738
399.94998 0.99738
