3998.07136 0.99999
3996.64296 0.99999
3995.21457 0.99999
3993.78618 0.99999
3992.35779 0.99999
3990.92939 0.99999
3989.50100 0.99999
3988.07261 0.99999
3986.64422 0.99998
3985.21582 0.99996
3983.78743 0.99995
3982.35904 0.99995
3980.93064 0.99996
3979.50225 0.99997
3978.07386 0.99997
3976.64547 0.99994
3975.21707 0.99990
3973.78868 0.99986
3972.36029 0.99982
3970.93189 0.99978
3969.50350 0.99974
3968.07511 0.99971
3966.64672 0.99970
3965.21832 0.99970
3963.78993 0.99972
3962.36154 0.99975
3960.93315 0.99976
3959.50475 0.99977
3958.07636 0.99977
3956.64797 0.99978
3955.21957 0.99978
3953.79118 0.99977
3952.36279 0.99975
3950.93440 0.99972
3949.50600 0.99969
3948.07761 0.99966
3946.64922 0.99963
3945.22082 0.99961
3943.79243 0.99958
3942.36404 0.99956
3940.93565 0.99956
3939.50725 0.99957
3938.07886 0.99959
3936.65047 0.99961
3935.22208 0.99963
3933.79368 0.99965
3932.36529 0.99966
3930.93690 0.99967
3929.50850 0.99968
3928.08011 0.99969
3926.65172 0.99970
3925.22333 0.99972
3923.79493 0.99973
3922.36654 0.99974
3920.93815 0.99974
3919.50976 0.99971
3918.08136 0.99967
3916.65297 0.99961
3915.22458 0.99953
3913.79618 0.99946
3912.36779 0.99939
3910.93940 0.99937
3909.51101 0.99938
3908.08261 0.99943
3906.65422 0.99949
3905.22583 0.99955
3903.79743 0.99960
3902.36904 0.99962
3900.94065 0.99962
3899.51226 0.99961
3898.08386 0.99958
3896.65547 0.99955
3895.22708 0.99951
3893.79869 0.99948
3892.37029 0.99947
3890.94190 0.99946
3889.51351 0.99945
3888.08511 0.99945
3886.65672 0.99946
3885.22833 0.99945
3883.79994 0.99943
3882.37154 0.99941
3880.94315 0.99940
3879.51476 0.99941
3878.08636 0.99941
3876.65797 0.99942
3875.22958 0.99943
3873.80119 0.99943
3872.37279 0.99944
3870.94440 0.99946
3869.51601 0.99947
3868.08762 0.99945
3866.65922 0.99939
3865.23083 0.99932
3863.80244 0.99924
3862.37404 0.99918
3860.94565 0.99916
3859.51726 0.99919
3858.08887 0.99925
3856.66047 0.99931
3855.23208 0.99936
3853.80369 0.99937
3852.37530 0.99935
3850.94690 0.99930
3849.51851 0.99923
3848.09012 0.99916
3846.66172 0.99910
3845.23333 0.99910
3843.80494 0.99919
3842.37655 0.99933
3840.94815 0.99946
3839.51976 0.99955
3838.09137 0.99957
3836.66297 0.99953
3835.23458 0.99944
3833.80619 0.99934
3832.37780 0.99923
3830.94940 0.99912
3829.52101 0.99901
3828.09262 0.99892
3826.66423 0.99889
3825.23583 0.99890
3823.80744 0.99895
3822.37905 0.99901
3820.95065 0.99904
3819.52226 0.99904
3818.09387 0.99902
3816.66548 0.99900
3815.23708 0.99897
3813.80869 0.99891
3812.38030 0.99884
3810.95190 0.99877
3809.52351 0.99875
3808.09512 0.99880
3806.66673 0.99890
3805.23833 0.99900
3803.80994 0.99907
3802.38155 0.99910
3800.95316 0.99910
3799.52476 0.99906
3798.09637 0.99898
3796.66798 0.99886
3795.23958 0.99871
3793.81119 0.99856
3792.38280 0.99844
3790.95441 0.99837
3789.52601 0.99833
3788.09762 0.99832
3786.66923 0.99834
3785.24083 0.99839
3783.81244 0.99844
3782.38405 0.99848
3780.95566 0.99849
3779.52726 0.99847
3778.09887 0.99843
3776.67048 0.99840
3775.24209 0.99838
3773.81369 0.99838
3772.38530 0.99838
3770.95691 0.99839
3769.52851 0.99839
3768.10012 0.99841
3766.67173 0.99842
3765.24334 0.99842
3763.81494 0.99841
3762.38655 0.99838
3760.95816 0.99837
3759.52977 0.99840
3758.10137 0.99848
3756.67298 0.99857
3755.24459 0.99866
3753.81619 0.99874
3752.38780 0.99882
3750.95941 0.99888
3749.53102 0.99890
3748.10262 0.99887
3746.67423 0.99879
3745.24584 0.99868
3743.81744 0.99859
3742.38905 0.99855
3740.96066 0.99856
3739.53227 0.99858
3738.10387 0.99858
3736.67548 0.99857
3735.24709 0.99854
3733.81870 0.99848
3732.39030 0.99837
3730.96191 0.99823
3729.53352 0.99808
3728.10512 0.99794
3726.67673 0.99786
3725.24834 0.99783
3723.81995 0.99785
3722.39155 0.99789
3720.96316 0.99794
3719.53477 0.99799
3718.10637 0.99806
3716.67798 0.99812
3715.24959 0.99816
3713.82120 0.99816
3712.39280 0.99813
3710.96441 0.99806
3709.53602 0.99797
3708.10763 0.99787
3706.67923 0.99778
3705.25084 0.99769
3703.82245 0.99761
3702.39405 0.99757
3700.96566 0.99756
3699.53727 0.99757
3698.10888 0.99760
3696.68048 0.99766
3695.25209 0.99777
3693.82370 0.99791
3692.39531 0.99806
3690.96691 0.99819
3689.53852 0.99829
3688.11013 0.99834
3686.68173 0.99834
3685.25334 0.99831
3683.82495 0.99828
3682.39656 0.99827
3680.96816 0.99829
3679.53977 0.99832
3678.11138 0.99838
3676.68298 0.99846
3675.25459 0.99853
3673.82620 0.99857
3672.39781 0.99855
3670.96941 0.99850
3669.54102 0.99843
3668.11263 0.99837
3666.68424 0.99833
3665.25584 0.99830
3663.82745 0.99829
3662.39906 0.99827
3660.97066 0.99826
3659.54227 0.99828
3658.11388 0.99833
3656.68549 0.99841
3655.25709 0.99853
3653.82870 0.99865
3652.40031 0.99877
3650.97191 0.99884
3649.54352 0.99887
3648.11513 0.99886
3646.68674 0.99880
3645.25834 0.99870
3643.82995 0.99857
3642.40156 0.99844
3640.97317 0.99833
3639.54477 0.99826
3638.11638 0.99822
3636.68799 0.99822
3635.25959 0.99828
3633.83120 0.99836
3632.40281 0.99843
3630.97442 0.99848
3629.54602 0.99849
3628.11763 0.99846
3626.68924 0.99842
3625.26084 0.99837
3623.83245 0.99831
3622.40406 0.99822
3620.97567 0.99815
3619.54727 0.99813
3618.11888 0.99815
3616.69049 0.99817
3615.26210 0.99818
3613.83370 0.99815
3612.40531 0.99811
3610.97692 0.99806
3609.54852 0.99802
3608.12013 0.99800
3606.69174 0.99797
3605.26335 0.99794
3603.83495 0.99789
3602.40656 0.99784
3600.97817 0.99776
3599.54978 0.99766
3598.12138 0.99756
3596.69299 0.99748
3595.26460 0.99743
3593.83620 0.99743
3592.40781 0.99746
3590.97942 0.99751
3589.55103 0.99755
3588.12263 0.99754
3586.69424 0.99751
3585.26585 0.99745
3583.83745 0.99738
3582.40906 0.99730
3580.98067 0.99722
3579.55228 0.99716
3578.12388 0.99711
3576.69549 0.99708
3575.26710 0.99706
3573.83871 0.99703
3572.41031 0.99701
3570.98192 0.99700
3569.55353 0.99701
3568.12513 0.99704
3566.69674 0.99709
3565.26835 0.99715
3563.83996 0.99719
3562.41156 0.99720
3560.98317 0.99717
3559.55478 0.99711
3558.12638 0.99704
3556.69799 0.99698
3555.26960 0.99693
3553.84121 0.99689
3552.41281 0.99688
3550.98442 0.99689
3549.55603 0.99694
3548.12764 0.99699
3546.69924 0.99702
3545.27085 0.99703
3543.84246 0.99702
3542.41406 0.99698
3540.98567 0.99693
3539.55728 0.99687
3538.12889 0.99682
3536.70049 0.99680
3535.27210 0.99683
3533.84371 0.99690
3532.41532 0.99697
3530.98692 0.99702
3529.55853 0.99705
3528.13014 0.99705
3526.70174 0.99702
3525.27335 0.99697
3523.84496 0.99691
3522.41657 0.99684
3520.98817 0.99677
3519.55978 0.99669
3518.13139 0.99664
3516.70299 0.99662
3515.27460 0.99661
3513.84621 0.99662
3512.41782 0.99661
3510.98942 0.99661
3509.56103 0.99661
3508.13264 0.99663
3506.70425 0.99666
3505.27585 0.99668
3503.84746 0.99669
3502.41907 0.99668
3500.99067 0.99668
3499.56228 0.99669
3498.13389 0.99672
3496.70550 0.99674
3495.27710 0.99675
3493.84871 0.99677
3492.42032 0.99681
3490.99192 0.99684
3489.56353 0.99687
3488.13514 0.99690
3486.70675 0.99692
3485.27835 0.99695
3483.84996 0.99697
3482.42157 0.99699
3480.99318 0.99700
3479.56478 0.99700
3478.13639 0.99700
3476.70800 0.99698
3475.27960 0.99696
3473.85121 0.99694
3472.42282 0.99694
3470.99443 0.99696
3469.56603 0.99700
3468.13764 0.99705
3466.70925 0.99709
3465.28085 0.99713
3463.85246 0.99716
3462.42407 0.99717
3460.99568 0.99717
3459.56728 0.99718
3458.13889 0.99719
3456.71050 0.99721
3455.28211 0.99724
3453.85371 0.99728
3452.42532 0.99734
3450.99693 0.99740
3449.56853 0.99746
3448.14014 0.99751
3446.71175 0.99756
3445.28336 0.99761
3443.85496 0.99766
3442.42657 0.99771
3440.99818 0.99772
3439.56979 0.99772
3438.14139 0.99769
3436.71300 0.99769
3435.28461 0.99770
3433.85621 0.99774
3432.42782 0.99781
3430.99943 0.99788
3429.57104 0.99797
3428.14264 0.99806
3426.71425 0.99817
3425.28586 0.99828
3423.85746 0.99838
3422.42907 0.99847
3421.00068 0.99853
3419.57229 0.99858
3418.14389 0.99861
3416.71550 0.99863
3415.28711 0.99864
3413.85872 0.99864
3412.43032 0.99863
3411.00193 0.99863
3409.57354 0.99864
3408.14514 0.99868
3406.71675 0.99873
3405.28836 0.99879
3403.85997 0.99883
3402.43157 0.99886
3401.00318 0.99889
3399.57479 0.99891
3398.14639 0.99894
3396.71800 0.99899
3395.28961 0.99905
3393.86122 0.99913
3392.43282 0.99923
3391.00443 0.99935
3389.57604 0.99947
3388.14765 0.99958
3386.71925 0.99965
3385.29086 0.99968
3383.86247 0.99971
3382.43407 0.99974
3381.00568 0.99978
3379.57729 0.99983
3378.14890 0.99985
3376.72050 0.99986
3375.29211 0.99985
3373.86372 0.99983
3372.43533 0.99981
3371.00693 0.99978
3369.57854 0.99976
3368.15015 0.99974
3366.72175 0.99973
3365.29336 0.99974
3363.86497 0.99976
3362.43658 0.99979
3361.00818 0.99981
3359.57979 0.99983
3358.15140 0.99984
3356.72300 0.99985
3355.29461 0.99987
3353.86622 0.99991
3352.43783 0.99996
3351.00943 0.99999
3349.58104 0.99999
3348.15265 0.99998
3346.72426 0.99996
3345.29586 0.99996
3343.86747 0.99995
3342.43908 0.99993
3341.01068 0.99992
3339.58229 0.99989
3338.15390 0.99987
3336.72551 0.99985
3335.29711 0.99983
3333.86872 0.99982
3332.44033 0.99981
3331.01193 0.99979
3329.58354 0.99976
3328.15515 0.99973
3326.72676 0.99970
3325.29836 0.99966
3323.86997 0.99962
3322.44158 0.99955
3321.01319 0.99947
3319.58479 0.99938
3318.15640 0.99929
3316.72801 0.99923
3315.29961 0.99917
3313.87122 0.99912
3312.44283 0.99906
3311.01444 0.99902
3309.58604 0.99897
3308.15765 0.99894
3306.72926 0.99891
3305.30086 0.99887
3303.87247 0.99881
3302.44408 0.99873
3301.01569 0.99863
3299.58729 0.99855
3298.15890 0.99846
3296.73051 0.99839
3295.30212 0.99831
3293.87372 0.99824
3292.44533 0.99821
3291.01694 0.99822
3289.58854 0.99830
3288.16015 0.99840
3286.73176 0.99850
3285.30337 0.99855
3283.87497 0.99854
3282.44658 0.99851
3281.01819 0.99847
3279.58980 0.99842
3278.16140 0.99837
3276.73301 0.99833
3275.30462 0.99831
3273.87622 0.99831
3272.44783 0.99833
3271.01944 0.99837
3269.59105 0.99840
3268.16265 0.99844
3266.73426 0.99848
3265.30587 0.99851
3263.87747 0.99857
3262.44908 0.99865
3261.02069 0.99876
3259.59230 0.99889
3258.16390 0.99900
3256.73551 0.99907
3255.30712 0.99911
3253.87873 0.99911
3252.45033 0.99911
3251.02194 0.99911
3249.59355 0.99912
3248.16515 0.99917
3246.73676 0.99927
3245.30837 0.99939
3243.87998 0.99952
3242.45158 0.99962
3241.02319 0.99967
3239.59480 0.99968
3238.16640 0.99966
3236.73801 0.99962
3235.30962 0.99958
3233.88123 0.99956
3232.45283 0.99959
3231.02444 0.99967
3229.59605 0.99977
3228.16766 0.99987
3226.73926 0.99993
3225.31087 0.99997
3223.88248 0.99997
3222.45408 0.99996
3221.02569 0.99993
3219.59730 0.99989
3218.16891 0.99984
3216.74051 0.99977
3215.31212 0.99970
3213.88373 0.99964
3212.45534 0.99959
3211.02694 0.99956
3209.59855 0.99957
3208.17016 0.99961
3206.74176 0.99967
3205.31337 0.99973
3203.88498 0.99979
3202.45659 0.99983
3201.02819 0.99985
3199.59980 0.99984
3198.17141 0.99981
3196.74301 0.99976
3195.31462 0.99969
3193.88623 0.99961
3192.45784 0.99956
3191.02944 0.99951
3189.60105 0.99948
3188.17266 0.99945
3186.74427 0.99941
3185.31587 0.99936
3183.88748 0.99930
3182.45909 0.99925
3181.03069 0.99919
3179.60230 0.99914
3178.17391 0.99907
3176.74552 0.99901
3175.31712 0.99894
3173.88873 0.99888
3172.46034 0.99882
3171.03194 0.99877
3169.60355 0.99871
3168.17516 0.99864
3166.74677 0.99857
3165.31837 0.99849
3163.88998 0.99843
3162.46159 0.99839
3161.03320 0.99833
3159.60480 0.99825
3158.17641 0.99814
3156.74802 0.99804
3155.31962 0.99794
3153.89123 0.99787
3152.46284 0.99782
3151.03445 0.99777
3149.60605 0.99773
3148.17766 0.99768
3146.74927 0.99761
3145.32087 0.99754
3143.89248 0.99747
3142.46409 0.99741
3141.03570 0.99735
3139.60730 0.99730
3138.17891 0.99724
3136.75052 0.99718
3135.32213 0.99712
3133.89373 0.99705
3132.46534 0.99696
3131.03695 0.99684
3129.60855 0.99671
3128.18016 0.99660
3126.75177 0.99651
3125.32338 0.99644
3123.89498 0.99636
3122.46659 0.99627
3121.03820 0.99617
3119.60981 0.99607
3118.18141 0.99596
3116.75302 0.99585
3115.32463 0.99577
3113.89623 0.99569
3112.46784 0.99563
3111.03945 0.99558
3109.61106 0.99554
3108.18266 0.99551
3106.75427 0.99547
3105.32588 0.99542
3103.89748 0.99537
3102.46909 0.99532
3101.04070 0.99526
3099.61231 0.99518
3098.18391 0.99510
3096.75552 0.99500
3095.32713 0.99491
3093.89874 0.99481
3092.47034 0.99472
3091.04195 0.99462
3089.61356 0.99451
3088.18516 0.99440
3086.75677 0.99431
3085.32838 0.99423
3083.89999 0.99415
3082.47159 0.99406
3081.04320 0.99398
3079.61481 0.99392
3078.18641 0.99389
3076.75802 0.99386
3075.32963 0.99382
3073.90124 0.99376
3072.47284 0.99369
3071.04445 0.99361
3069.61606 0.99353
3068.18767 0.99345
3066.75927 0.99337
3065.33088 0.99330
3063.90249 0.99324
3062.47409 0.99321
3061.04570 0.99321
3059.61731 0.99321
3058.18892 0.99320
3056.76052 0.99317
3055.33213 0.99313
3053.90374 0.99307
3052.47535 0.99300
3051.04695 0.99293
3049.61856 0.99287
3048.19017 0.99282
3046.76177 0.99279
3045.33338 0.99279
3043.90499 0.99282
3042.47660 0.99286
3041.04820 0.99291
3039.61981 0.99296
3038.19142 0.99299
3036.76302 0.99301
3035.33463 0.99300
3033.90624 0.99297
3032.47785 0.99292
3031.04945 0.99288
3029.62106 0.99285
3028.19267 0.99282
3026.76428 0.99282
3025.33588 0.99283
3023.90749 0.99285
3022.47910 0.99287
3021.05070 0.99288
3019.62231 0.99288
3018.19392 0.99287
3016.76553 0.99288
3015.33713 0.99289
3013.90874 0.99291
3012.48035 0.99293
3011.05195 0.99296
3009.62356 0.99299
3008.19517 0.99301
3006.76678 0.99302
3005.33838 0.99301
3003.90999 0.99300
3002.48160 0.99299
3001.05321 0.99298
2999.62481 0.99297
2998.19642 0.99295
2996.76803 0.99292
2995.33963 0.99288
2993.91124 0.99283
2992.48285 0.99276
2991.05446 0.99268
2989.62606 0.99259
2988.19767 0.99248
2986.76928 0.99237
2985.34088 0.99226
2983.91249 0.99214
2982.48410 0.99201
2981.05571 0.99186
2979.62731 0.99170
2978.19892 0.99155
2976.77053 0.99139
2975.34214 0.99123
2973.91374 0.99105
2972.48535 0.99087
2971.05696 0.99069
2969.62856 0.99050
2968.20017 0.99033
2966.77178 0.99017
2965.34339 0.99003
2963.91499 0.98992
2962.48660 0.98983
2961.05821 0.98977
2959.62982 0.98973
2958.20142 0.98970
2956.77303 0.98968
2955.34464 0.98967
2953.91624 0.98965
2952.48785 0.98963
2951.05946 0.98961
2949.63107 0.98959
2948.20267 0.98958
2946.77428 0.98957
2945.34589 0.98957
2943.91749 0.98958
2942.48910 0.98960
2941.06071 0.98962
2939.63232 0.98966
2938.20392 0.98971
2936.77553 0.98979
2935.34714 0.98988
2933.91875 0.98998
2932.49035 0.99008
2931.06196 0.99019
2929.63357 0.99030
2928.20517 0.99042
2926.77678 0.99054
2925.34839 0.99066
2923.92000 0.99076
2922.49160 0.99086
2921.06321 0.99094
2919.63482 0.99101
2918.20642 0.99107
2916.77803 0.99112
2915.34964 0.99117
2913.92125 0.99122
2912.49285 0.99126
2911.06446 0.99131
2909.63607 0.99135
2908.20768 0.99137
2906.77928 0.99137
2905.35089 0.99137
2903.92250 0.99135
2902.49410 0.99133
2901.06571 0.99130
2899.63732 0.99127
2898.20893 0.99123
2896.78053 0.99120
2895.35214 0.99118
2893.92375 0.99116
2892.49536 0.99115
2891.06696 0.99115
2889.63857 0.99115
2888.21018 0.99117
2886.78178 0.99120
2885.35339 0.99124
2883.92500 0.99128
2882.49661 0.99132
2881.06821 0.99137
2879.63982 0.99143
2878.21143 0.99148
2876.78303 0.99154
2875.35464 0.99158
2873.92625 0.99161
2872.49786 0.99164
2871.06946 0.99167
2869.64107 0.99172
2868.21268 0.99179
2866.78429 0.99188
2865.35589 0.99197
2863.92750 0.99206
2862.49911 0.99215
2861.07071 0.99222
2859.64232 0.99229
2858.21393 0.99234
2856.78554 0.99238
2855.35714 0.99242
2853.92875 0.99247
2852.50036 0.99255
2851.07196 0.99263
2849.64357 0.99272
2848.21518 0.99278
2846.78679 0.99284
2845.35839 0.99290
2843.93000 0.99295
2842.50161 0.99301
2841.07322 0.99307
2839.64482 0.99311
2838.21643 0.99317
2836.78804 0.99323
2835.35964 0.99331
2833.93125 0.99338
2832.50286 0.99344
2831.07447 0.99349
2829.64607 0.99354
2828.21768 0.99359
2826.78929 0.99363
2825.36089 0.99367
2823.93250 0.99371
2822.50411 0.99376
2821.07572 0.99381
2819.64732 0.99386
2818.21893 0.99392
2816.79054 0.99396
2815.36215 0.99400
2813.93375 0.99403
2812.50536 0.99405
2811.07697 0.99408
2809.64857 0.99410
2808.22018 0.99413
2806.79179 0.99416
2805.36340 0.99420
2803.93500 0.99424
2802.50661 0.99428
2801.07822 0.99433
2799.64983 0.99437
2798.22143 0.99441
2796.79304 0.99445
2795.36465 0.99449
2793.93625 0.99453
2792.50786 0.99457
2791.07947 0.99462
2789.65108 0.99466
2788.22268 0.99470
2786.79429 0.99474
2785.36590 0.99478
2783.93750 0.99482
2782.50911 0.99485
2781.08072 0.99486
2779.65233 0.99487
2778.22393 0.99486
2776.79554 0.99487
2775.36715 0.99489
2773.93876 0.99492
2772.51036 0.99497
2771.08197 0.99502
2769.65358 0.99508
2768.22518 0.99514
2766.79679 0.99519
2765.36840 0.99523
2763.94001 0.99525
2762.51161 0.99526
2761.08322 0.99526
2759.65483 0.99526
2758.22643 0.99525
2756.79804 0.99524
2755.36965 0.99524
2753.94126 0.99524
2752.51286 0.99524
2751.08447 0.99525
2749.65608 0.99526
2748.22769 0.99527
2746.79929 0.99529
2745.37090 0.99532
2743.94251 0.99535
2742.51411 0.99538
2741.08572 0.99540
2739.65733 0.99543
2738.22894 0.99546
2736.80054 0.99550
2735.37215 0.99554
2733.94376 0.99558
2732.51537 0.99562
2731.08697 0.99564
2729.65858 0.99565
2728.23019 0.99566
2726.80179 0.99566
2725.37340 0.99568
2723.94501 0.99570
2722.51662 0.99573
2721.08822 0.99577
2719.65983 0.99580
2718.23144 0.99583
2716.80304 0.99586
2715.37465 0.99589
2713.94626 0.99591
2712.51787 0.99592
2711.08947 0.99594
2709.66108 0.99596
2708.23269 0.99599
2706.80430 0.99601
2705.37590 0.99603
2703.94751 0.99604
2702.51912 0.99605
2701.09072 0.99606
2699.66233 0.99606
2698.23394 0.99607
2696.80555 0.99609
2695.37715 0.99611
2693.94876 0.99613
2692.52037 0.99615
2691.09197 0.99616
2689.66358 0.99617
2688.23519 0.99617
2686.80680 0.99619
2685.37840 0.99621
2683.95001 0.99623
2682.52162 0.99626
2681.09323 0.99629
2679.66483 0.99633
2678.23644 0.99636
2676.80805 0.99638
2675.37965 0.99640
2673.95126 0.99642
2672.52287 0.99643
2671.09448 0.99644
2669.66608 0.99645
2668.23769 0.99648
2666.80930 0.99651
2665.38090 0.99655
2663.95251 0.99659
2662.52412 0.99663
2661.09573 0.99665
2659.66733 0.99667
2658.23894 0.99668
2656.81055 0.99669
2655.38216 0.99670
2653.95376 0.99671
2652.52537 0.99672
2651.09698 0.99672
2649.66858 0.99672
2648.24019 0.99672
2646.81180 0.99671
2645.38341 0.99672
2643.95501 0.99673
2642.52662 0.99675
2641.09823 0.99678
2639.66984 0.99680
2638.24144 0.99682
2636.81305 0.99686
2635.38466 0.99690
2633.95626 0.99694
2632.52787 0.99699
2631.09948 0.99704
2629.67109 0.99707
2628.24269 0.99709
2626.81430 0.99709
2625.38591 0.99708
2623.95751 0.99706
2622.52912 0.99703
2621.10073 0.99701
2619.67234 0.99701
2618.24394 0.99703
2616.81555 0.99706
2615.38716 0.99709
2613.95877 0.99711
2612.53037 0.99713
2611.10198 0.99713
2609.67359 0.99715
2608.24519 0.99717
2606.81680 0.99721
2605.38841 0.99725
2603.96002 0.99731
2602.53162 0.99737
2601.10323 0.99743
2599.67484 0.99747
2598.24644 0.99749
2596.81805 0.99749
2595.38966 0.99749
2593.96127 0.99750
2592.53287 0.99752
2591.10448 0.99755
2589.67609 0.99758
2588.24770 0.99761
2586.81930 0.99765
2585.39091 0.99769
2583.96252 0.99772
2582.53412 0.99775
2581.10573 0.99777
2579.67734 0.99778
2578.24895 0.99780
2576.82055 0.99782
2575.39216 0.99784
2573.96377 0.99785
2572.53537 0.99785
2571.10698 0.99783
2569.67859 0.99779
2568.25020 0.99777
2566.82180 0.99776
2565.39341 0.99775
2563.96502 0.99775
2562.53663 0.99774
2561.10823 0.99775
2559.67984 0.99777
2558.25145 0.99780
2556.82305 0.99783
2555.39466 0.99783
2553.96627 0.99782
2552.53788 0.99780
2551.10948 0.99779
2549.68109 0.99780
2548.25270 0.99781
2546.82431 0.99781
2545.39591 0.99782
2543.96752 0.99783
2542.53913 0.99783
2541.11073 0.99784
2539.68234 0.99783
2538.25395 0.99782
2536.82556 0.99782
2535.39716 0.99783
2533.96877 0.99786
2532.54038 0.99792
2531.11198 0.99799
2529.68359 0.99805
2528.25520 0.99811
2526.82681 0.99814
2525.39841 0.99815
2523.97002 0.99815
2522.54163 0.99814
2521.11324 0.99813
2519.68484 0.99813
2518.25645 0.99814
2516.82806 0.99814
2515.39966 0.99813
2513.97127 0.99813
2512.54288 0.99812
2511.11449 0.99811
2509.68609 0.99811
2508.25770 0.99810
2506.82931 0.99811
2505.40091 0.99813
2503.97252 0.99818
2502.54413 0.99822
2501.11574 0.99826
2499.68734 0.99828
2498.25895 0.99829
2496.83056 0.99830
2495.40217 0.99831
2493.97377 0.99831
2492.54538 0.99832
2491.11699 0.99832
2489.68859 0.99833
2488.26020 0.99835
2486.83181 0.99836
2485.40342 0.99839
2483.97502 0.99841
2482.54663 0.99843
2481.11824 0.99845
2479.68985 0.99847
2478.26145 0.99849
2476.83306 0.99851
2475.40467 0.99852
2473.97627 0.99851
2472.54788 0.99849
2471.11949 0.99846
2469.69110 0.99843
2468.26270 0.99842
2466.83431 0.99842
2465.40592 0.99843
2463.97752 0.99844
2462.54913 0.99845
2461.12074 0.99847
2459.69235 0.99849
2458.26395 0.99850
2456.83556 0.99848
2455.40717 0.99845
2453.97878 0.99842
2452.55038 0.99843
2451.12199 0.99846
2449.69360 0.99850
2448.26520 0.99854
2446.83681 0.99859
2445.40842 0.99863
2443.98003 0.99867
2442.55163 0.99868
2441.12324 0.99867
2439.69485 0.99865
2438.26645 0.99863
2436.83806 0.99862
2435.40967 0.99863
2433.98128 0.99863
2432.55288 0.99863
2431.12449 0.99862
2429.69610 0.99862
2428.26771 0.99862
2426.83931 0.99863
2425.41092 0.99864
2423.98253 0.99863
2422.55413 0.99862
2421.12574 0.99862
2419.69735 0.99862
2418.26896 0.99863
2416.84056 0.99864
2415.41217 0.99865
2413.98378 0.99867
2412.55538 0.99868
2411.12699 0.99870
2409.69860 0.99871
2408.27021 0.99871
2406.84181 0.99870
2405.41342 0.99869
2403.98503 0.99868
2402.55664 0.99868
2401.12824 0.99870
2399.69985 0.99872
2398.27146 0.99875
2396.84306 0.99876
2395.41467 0.99876
2393.98628 0.99876
2392.55789 0.99875
2391.12949 0.99875
2389.70110 0.99874
2388.27271 0.99871
2386.84432 0.99867
2385.41592 0.99861
2383.98753 0.99852
2382.55914 0.99840
2381.13074 0.99823
2379.70235 0.99802
2378.27396 0.99776
2376.84557 0.99749
2375.41717 0.99721
2373.98878 0.99694
2372.56039 0.99669
2371.13199 0.99645
2369.70360 0.99621
2368.27521 0.99598
2366.84682 0.99577
2365.41842 0.99557
2363.99003 0.99535
2362.56164 0.99511
2361.13325 0.99489
2359.70485 0.99475
2358.27646 0.99475
2356.84807 0.99490
2355.41967 0.99518
2353.99128 0.99551
2352.56289 0.99585
2351.13450 0.99614
2349.70610 0.99636
2348.27771 0.99648
2346.84932 0.99647
2345.42092 0.99634
2343.99253 0.99617
2342.56414 0.99604
2341.13575 0.99599
2339.70735 0.99600
2338.27896 0.99604
2336.85057 0.99610
2335.42218 0.99614
2333.99378 0.99618
2332.56539 0.99622
2331.13700 0.99627
2329.70860 0.99633
2328.28021 0.99640
2326.85182 0.99649
2325.42343 0.99661
2323.99503 0.99674
2322.56664 0.99687
2321.13825 0.99700
2319.70986 0.99715
2318.28146 0.99730
2316.85307 0.99745
2315.42468 0.99759
2313.99628 0.99772
2312.56789 0.99784
2311.13950 0.99794
2309.71111 0.99803
2308.28271 0.99810
2306.85432 0.99815
2305.42593 0.99819
2303.99753 0.99823
2302.56914 0.99826
2301.14075 0.99829
2299.71236 0.99832
2298.28396 0.99836
2296.85557 0.99840
2295.42718 0.99847
2293.99879 0.99857
2292.57039 0.99867
2291.14200 0.99876
2289.71361 0.99883
2288.28521 0.99889
2286.85682 0.99894
2285.42843 0.99898
2284.00004 0.99899
2282.57164 0.99898
2281.14325 0.99895
2279.71486 0.99893
2278.28646 0.99892
2276.85807 0.99891
2275.42968 0.99890
2274.00129 0.99887
2272.57289 0.99886
2271.14450 0.99887
2269.71611 0.99890
2268.28772 0.99892
2266.85932 0.99895
2265.43093 0.99899
2264.00254 0.99904
2262.57414 0.99908
2261.14575 0.99909
2259.71736 0.99906
2258.28897 0.99901
2256.86057 0.99897
2255.43218 0.99896
2254.00379 0.99895
2252.57539 0.99893
2251.14700 0.99890
2249.71861 0.99891
2248.29022 0.99897
2246.86182 0.99905
2245.43343 0.99912
2244.00504 0.99915
2242.57665 0.99915
2241.14825 0.99915
2239.71986 0.99916
2238.29147 0.99918
2236.86307 0.99917
2235.43468 0.99916
2234.00629 0.99917
2232.57790 0.99922
2231.14950 0.99928
2229.72111 0.99933
2228.29272 0.99934
2226.86433 0.99932
2225.43593 0.99926
2224.00754 0.99918
2222.57915 0.99909
2221.15075 0.99900
2219.72236 0.99894
2218.29397 0.99892
2216.86558 0.99894
2215.43718 0.99897
2214.00879 0.99898
2212.58040 0.99897
2211.15200 0.99895
2209.72361 0.99897
2208.29522 0.99901
2206.86683 0.99905
2205.43843 0.99908
2204.01004 0.99910
2202.58165 0.99914
2201.15326 0.99918
2199.72486 0.99920
2198.29647 0.99922
2196.86808 0.99923
2195.43968 0.99928
2194.01129 0.99939
2192.58290 0.99955
2191.15451 0.99969
2189.72611 0.99976
2188.29772 0.99973
2186.86933 0.99960
2185.44093 0.99941
2184.01254 0.99921
2182.58415 0.99906
2181.15576 0.99897
2179.72736 0.99896
2178.29897 0.99904
2176.87058 0.99916
2175.44219 0.99931
2174.01379 0.99943
2172.58540 0.99953
2171.15701 0.99958
2169.72861 0.99960
2168.30022 0.99958
2166.87183 0.99951
2165.44344 0.99937
2164.01504 0.99918
2162.58665 0.99900
2161.15826 0.99886
2159.72987 0.99875
2158.30147 0.99868
2156.87308 0.99866
2155.44469 0.99871
2154.01629 0.99881
2152.58790 0.99893
2151.15951 0.99903
2149.73112 0.99908
2148.30272 0.99909
2146.87433 0.99909
2145.44594 0.99910
2144.01754 0.99913
2142.58915 0.99917
2141.16076 0.99920
2139.73237 0.99923
2138.30397 0.99923
2136.87558 0.99920
2135.44719 0.99916
2134.01880 0.99912
2132.59040 0.99909
2131.16201 0.99904
2129.73362 0.99896
2128.30522 0.99889
2126.87683 0.99886
2125.44844 0.99887
2124.02005 0.99892
2122.59165 0.99900
2121.16326 0.99908
2119.73487 0.99914
2118.30647 0.99919
2116.87808 0.99922
2115.44969 0.99923
2114.02130 0.99921
2112.59290 0.99919
2111.16451 0.99919
2109.73612 0.99922
2108.30773 0.99929
2106.87933 0.99938
2105.45094 0.99949
2104.02255 0.99958
2102.59415 0.99967
2101.16576 0.99973
2099.73737 0.99976
2098.30898 0.99975
2096.88058 0.99969
2095.45219 0.99961
2094.02380 0.99951
2092.59540 0.99941
2091.16701 0.99929
2089.73862 0.99916
2088.31023 0.99905
2086.88183 0.99899
2085.45344 0.99899
2084.02505 0.99904
2082.59666 0.99910
2081.16826 0.99917
2079.73987 0.99924
2078.31148 0.99933
2076.88308 0.99941
2075.45469 0.99945
2074.02630 0.99944
2072.59791 0.99941
2071.16951 0.99941
2069.74112 0.99944
2068.31273 0.99948
2066.88434 0.99948
2065.45594 0.99947
2064.02755 0.99947
2062.59916 0.99950
2061.17076 0.99952
2059.74237 0.99952
2058.31398 0.99949
2056.88559 0.99945
2055.45719 0.99943
2054.02880 0.99945
2052.60041 0.99946
2051.17201 0.99945
2049.74362 0.99942
2048.31523 0.99940
2046.88684 0.99944
2045.45844 0.99949
2044.03005 0.99952
2042.60166 0.99951
2041.17327 0.99948
2039.74487 0.99945
2038.31648 0.99943
2036.88809 0.99941
2035.45969 0.99937
2034.03130 0.99931
2032.60291 0.99922
2031.17452 0.99915
2029.74612 0.99913
2028.31773 0.99914
2026.88934 0.99915
2025.46094 0.99917
2024.03255 0.99919
2022.60416 0.99922
2021.17577 0.99924
2019.74737 0.99925
2018.31898 0.99927
2016.89059 0.99930
2015.46220 0.99934
2014.03380 0.99936
2012.60541 0.99936
2011.17702 0.99935
2009.74862 0.99934
2008.32023 0.99932
2006.89184 0.99930
2005.46345 0.99927
2004.03505 0.99924
2002.60666 0.99923
2001.17827 0.99926
1999.74988 0.99933
1998.32148 0.99938
1996.89309 0.99938
1995.46470 0.99935
1994.03630 0.99935
1992.60791 0.99940
1991.17952 0.99948
1989.75113 0.99957
1988.32273 0.99963
1986.89434 0.99966
1985.46595 0.99967
1984.03755 0.99969
1982.60916 0.99970
1981.18077 0.99971
1979.75238 0.99973
1978.32398 0.99975
1976.89559 0.99980
1975.46720 0.99986
1974.03881 0.99988
1972.61041 0.99982
1971.18202 0.99966
1969.75363 0.99946
1968.32523 0.99925
1966.89684 0.99912
1965.46845 0.99904
1964.04006 0.99902
1962.61166 0.99902
1961.18327 0.99905
1959.75488 0.99911
1958.32648 0.99921
1956.89809 0.99931
1955.46970 0.99937
1954.04131 0.99938
1952.61291 0.99936
1951.18452 0.99935
1949.75613 0.99936
1948.32774 0.99938
1946.89934 0.99938
1945.47095 0.99935
1944.04256 0.99930
1942.61416 0.99924
1941.18577 0.99921
1939.75738 0.99922
1938.32899 0.99924
1936.90059 0.99925
1935.47220 0.99923
1934.04381 0.99919
1932.61541 0.99916
1931.18702 0.99914
1929.75863 0.99915
1928.33024 0.99915
1926.90184 0.99913
1925.47345 0.99912
1924.04506 0.99911
1922.61667 0.99912
1921.18827 0.99913
1919.75988 0.99911
1918.33149 0.99906
1916.90309 0.99901
1915.47470 0.99896
1914.04631 0.99893
1912.61792 0.99891
1911.18952 0.99891
1909.76113 0.99890
1908.33274 0.99888
1906.90435 0.99885
1905.47595 0.99883
1904.04756 0.99884
1902.61917 0.99886
1901.19077 0.99890
1899.76238 0.99896
1898.33399 0.99902
1896.90560 0.99909
1895.47720 0.99915
1894.04881 0.99918
1892.62042 0.99919
1891.19202 0.99917
1889.76363 0.99913
1888.33524 0.99908
1886.90685 0.99904
1885.47845 0.99902
1884.05006 0.99901
1882.62167 0.99902
1881.19328 0.99903
1879.76488 0.99906
1878.33649 0.99909
1876.90810 0.99910
1875.47970 0.99909
1874.05131 0.99908
1872.62292 0.99907
1871.19453 0.99907
1869.76613 0.99910
1868.33774 0.99913
1866.90935 0.99916
1865.48095 0.99916
1864.05256 0.99915
1862.62417 0.99911
1861.19578 0.99906
1859.76738 0.99899
1858.33899 0.99891
1856.91060 0.99885
1855.48221 0.99882
1854.05381 0.99883
1852.62542 0.99887
1851.19703 0.99894
1849.76863 0.99901
1848.34024 0.99908
1846.91185 0.99911
1845.48346 0.99912
1844.05506 0.99909
1842.62667 0.99904
1841.19828 0.99899
1839.76989 0.99895
1838.34149 0.99893
1836.91310 0.99894
1835.48471 0.99898
1834.05631 0.99903
1832.62792 0.99909
1831.19953 0.99914
1829.77114 0.99917
1828.34274 0.99916
1826.91435 0.99913
1825.48596 0.99908
1824.05756 0.99902
1822.62917 0.99896
1821.20078 0.99891
1819.77239 0.99887
1818.34399 0.99884
1816.91560 0.99883
1815.48721 0.99884
1814.05882 0.99887
1812.63042 0.99890
1811.20203 0.99891
1809.77364 0.99892
1808.34524 0.99893
1806.91685 0.99894
1805.48846 0.99896
1804.06007 0.99898
1802.63167 0.99902
1801.20328 0.99907
1799.77489 0.99914
1798.34649 0.99920
1796.91810 0.99925
1795.48971 0.99926
1794.06132 0.99925
1792.63292 0.99920
1791.20453 0.99914
1789.77614 0.99909
1788.34775 0.99904
1786.91935 0.99902
1785.49096 0.99901
1784.06257 0.99901
1782.63417 0.99902
1781.20578 0.99904
1779.77739 0.99907
1778.34900 0.99910
1776.92060 0.99914
1775.49221 0.99915
1774.06382 0.99916
1772.63542 0.99914
1771.20703 0.99912
1769.77864 0.99908
1768.35025 0.99905
1766.92185 0.99902
1765.49346 0.99902
1764.06507 0.99904
1762.63668 0.99909
1761.20828 0.99915
1759.77989 0.99921
1758.35150 0.99925
1756.92310 0.99928
1755.49471 0.99931
1754.06632 0.99935
1752.63793 0.99939
1751.20953 0.99942
1749.78114 0.99946
1748.35275 0.99949
1746.92436 0.99951
1745.49596 0.99952
1744.06757 0.99951
1742.63918 0.99948
1741.21078 0.99947
1739.78239 0.99951
1738.35400 0.99958
1736.92561 0.99966
1735.49721 0.99972
1734.06882 0.99974
1732.64043 0.99974
1731.21203 0.99972
1729.78364 0.99967
1728.35525 0.99960
1726.92686 0.99951
1725.49846 0.99945
1724.07007 0.99945
1722.64168 0.99952
1721.21329 0.99961
1719.78489 0.99972
1718.35650 0.99980
1716.92811 0.99985
1715.49971 0.99986
1714.07132 0.99985
1712.64293 0.99980
1711.21454 0.99973
1709.78614 0.99964
1708.35775 0.99955
1706.92936 0.99950
1705.50096 0.99950
1704.07257 0.99954
1702.64418 0.99958
1701.21579 0.99958
1699.78739 0.99951
1698.35900 0.99937
1696.93061 0.99917
1695.50222 0.99891
1694.07382 0.99860
1692.64543 0.99828
1691.21704 0.99798
1689.78864 0.99771
1688.36025 0.99746
1686.93186 0.99720
1685.50347 0.99692
1684.07507 0.99659
1682.64668 0.99623
1681.21829 0.99584
1679.78990 0.99540
1678.36150 0.99495
1676.93311 0.99450
1675.50472 0.99406
1674.07632 0.99360
1672.64793 0.99307
1671.21954 0.99249
1669.79115 0.99184
1668.36275 0.99112
1666.93436 0.99034
1665.50597 0.98951
1664.07757 0.98865
1662.64918 0.98781
1661.22079 0.98709
1659.79240 0.98654
1658.36400 0.98616
1656.93561 0.98593
1655.50722 0.98587
1654.07883 0.98598
1652.65043 0.98623
1651.22204 0.98654
1649.79365 0.98686
1648.36525 0.98715
1646.93686 0.98741
1645.50847 0.98765
1644.08008 0.98789
1642.65168 0.98821
1641.22329 0.98860
1639.79490 0.98903
1638.36650 0.98950
1636.93811 0.99001
1635.50972 0.99056
1634.08133 0.99112
1632.65293 0.99169
1631.22454 0.99224
1629.79615 0.99276
1628.36776 0.99324
1626.93936 0.99367
1625.51097 0.99409
1624.08258 0.99450
1622.65418 0.99487
1621.22579 0.99517
1619.79740 0.99539
1618.36901 0.99556
1616.94061 0.99571
1615.51222 0.99585
1614.08383 0.99597
1612.65543 0.99607
1611.22704 0.99614
1609.79865 0.99617
1608.37026 0.99619
1606.94186 0.99619
1605.51347 0.99615
1604.08508 0.99606
1602.65669 0.99590
1601.22829 0.99570
1599.79990 0.99550
1598.37151 0.99533
1596.94311 0.99518
1595.51472 0.99509
1594.08633 0.99506
1592.65794 0.99511
1591.22954 0.99524
1589.80115 0.99541
1588.37276 0.99560
1586.94437 0.99577
1585.51597 0.99593
1584.08758 0.99608
1582.65919 0.99622
1581.23079 0.99631
1579.80240 0.99634
1578.37401 0.99633
1576.94562 0.99628
1575.51722 0.99619
1574.08883 0.99603
1572.66044 0.99579
1571.23204 0.99547
1569.80365 0.99510
1568.37526 0.99472
1566.94687 0.99440
1565.51847 0.99412
1564.09008 0.99381
1562.66169 0.99344
1561.23330 0.99302
1559.80490 0.99255
1558.37651 0.99201
1556.94812 0.99139
1555.51972 0.99069
1554.09133 0.98995
1552.66294 0.98922
1551.23455 0.98862
1549.80615 0.98819
1548.37776 0.98795
1546.94937 0.98785
1545.52097 0.98788
1544.09258 0.98802
1542.66419 0.98823
1541.23580 0.98848
1539.80740 0.98878
1538.37901 0.98908
1536.95062 0.98937
1535.52223 0.98965
1534.09383 0.98995
1532.66544 0.99029
1531.23705 0.99067
1529.80865 0.99110
1528.38026 0.99154
1526.95187 0.99192
1525.52348 0.99223
1524.09508 0.99247
1522.66669 0.99266
1521.23830 0.99279
1519.80991 0.99287
1518.38151 0.99292
1516.95312 0.99300
1515.52473 0.99315
1514.09633 0.99343
1512.66794 0.99381
1511.23955 0.99422
1509.81116 0.99459
1508.38276 0.99490
1506.95437 0.99513
1505.52598 0.99530
1504.09758 0.99541
1502.66919 0.99546
1501.24080 0.99547
1499.81241 0.99547
1498.38401 0.99550
1496.95562 0.99562
1495.52723 0.99578
1494.09884 0.99594
1492.67044 0.99609
1491.24205 0.99621
1489.81366 0.99629
1488.38526 0.99633
1486.95687 0.99632
1485.52848 0.99624
1484.10009 0.99608
1482.67169 0.99587
1481.24330 0.99566
1479.81491 0.99551
1478.38651 0.99541
1476.95812 0.99532
1475.52973 0.99522
1474.10134 0.99513
1472.67294 0.99505
1471.24455 0.99497
1469.81616 0.99488
1468.38777 0.99476
1466.95937 0.99462
1465.53098 0.99450
1464.10259 0.99444
1462.67419 0.99443
1461.24580 0.99443
1459.81741 0.99441
1458.38902 0.99438
1456.96062 0.99435
1455.53223 0.99433
1454.10384 0.99433
1452.67544 0.99432
1451.24705 0.99428
1449.81866 0.99424
1448.39027 0.99420
1446.96187 0.99417
1445.53348 0.99414
1444.10509 0.99413
1442.67670 0.99415
1441.24830 0.99419
1439.81991 0.99425
1438.39152 0.99431
1436.96312 0.99437
1435.53473 0.99443
1434.10634 0.99446
1432.67795 0.99447
1431.24955 0.99446
1429.82116 0.99443
1428.39277 0.99438
1426.96438 0.99435
1425.53598 0.99433
1424.10759 0.99431
1422.67920 0.99428
1421.25080 0.99423
1419.82241 0.99415
1418.39402 0.99406
1416.96563 0.99396
1415.53723 0.99386
1414.10884 0.99375
1412.68045 0.99365
1411.25205 0.99356
1409.82366 0.99350
1408.39527 0.99347
1406.96688 0.99347
1405.53848 0.99349
1404.11009 0.99353
1402.68170 0.99361
1401.25331 0.99371
1399.82491 0.99382
1398.39652 0.99392
1396.96813 0.99401
1395.53973 0.99409
1394.11134 0.99417
1392.68295 0.99423
1391.25456 0.99429
1389.82616 0.99433
1388.39777 0.99438
1386.96938 0.99446
1385.54098 0.99456
1384.11259 0.99467
1382.68420 0.99478
1381.25581 0.99489
1379.82741 0.99499
1378.39902 0.99508
1376.97063 0.99516
1375.54224 0.99521
1374.11384 0.99522
1372.68545 0.99521
1371.25706 0.99519
1369.82866 0.99519
1368.40027 0.99519
1366.97188 0.99521
1365.54349 0.99523
1364.11509 0.99527
1362.68670 0.99532
1361.25831 0.99536
1359.82992 0.99539
1358.40152 0.99539
1356.97313 0.99537
1355.54474 0.99534
1354.11634 0.99532
1352.68795 0.99530
1351.25956 0.99529
1349.83117 0.99529
1348.40277 0.99529
1346.97438 0.99531
1345.54599 0.99534
1344.11759 0.99538
1342.68920 0.99539
1341.26081 0.99538
1339.83242 0.99536
1338.40402 0.99531
1336.97563 0.99526
1335.54724 0.99521
1334.11885 0.99516
1332.69045 0.99513
1331.26206 0.99511
1329.83367 0.99512
1328.40527 0.99515
1326.97688 0.99519
1325.54849 0.99524
1324.12010 0.99530
1322.69170 0.99535
1321.26331 0.99541
1319.83492 0.99545
1318.40652 0.99549
1316.97813 0.99552
1315.54974 0.99554
1314.12135 0.99555
1312.69295 0.99556
1311.26456 0.99555
1309.83617 0.99555
1308.40778 0.99554
1306.97938 0.99553
1305.55099 0.99550
1304.12260 0.99547
1302.69420 0.99543
1301.26581 0.99538
1299.83742 0.99534
1298.40903 0.99530
1296.98063 0.99526
1295.55224 0.99521
1294.12385 0.99515
1292.69545 0.99507
1291.26706 0.99495
1289.83867 0.99481
1288.41028 0.99466
1286.98188 0.99451
1285.55349 0.99441
1284.12510 0.99435
1282.69671 0.99434
1281.26831 0.99438
1279.83992 0.99445
1278.41153 0.99454
1276.98313 0.99463
1275.55474 0.99470
1274.12635 0.99474
1272.69796 0.99475
1271.26956 0.99473
1269.84117 0.99471
1268.41278 0.99469
1266.98439 0.99466
1265.55599 0.99463
1264.12760 0.99460
1262.69921 0.99455
1261.27081 0.99447
1259.84242 0.99438
1258.41403 0.99426
1256.98564 0.99412
1255.55724 0.99396
1254.12885 0.99378
1252.70046 0.99359
1251.27206 0.99339
1249.84367 0.99321
1248.41528 0.99303
1246.98689 0.99287
1245.55849 0.99273
1244.13010 0.99260
1242.70171 0.99251
1241.27332 0.99247
1239.84492 0.99250
1238.41653 0.99258
1236.98814 0.99272
1235.55974 0.99290
1234.13135 0.99310
1232.70296 0.99330
1231.27457 0.99350
1229.84617 0.99370
1228.41778 0.99389
1226.98939 0.99407
1225.56099 0.99426
1224.13260 0.99446
1222.70421 0.99465
1221.27582 0.99484
1219.84742 0.99501
1218.41903 0.99516
1216.99064 0.99529
1215.56225 0.99539
1214.13385 0.99548
1212.70546 0.99557
1211.27707 0.99566
1209.84867 0.99575
1208.42028 0.99585
1206.99189 0.99595
1205.56350 0.99605
1204.13510 0.99616
1202.70671 0.99628
1201.27832 0.99640
1199.84993 0.99651
1198.42153 0.99662
1196.99314 0.99672
1195.56475 0.99680
1194.13635 0.99688
1192.70796 0.99693
1191.27957 0.99698
1189.85118 0.99700
1188.42278 0.99703
1186.99439 0.99705
1185.56600 0.99706
1184.13760 0.99707
1182.70921 0.99708
1181.28082 0.99709
1179.85243 0.99710
1178.42403 0.99710
1176.99564 0.99707
1175.56725 0.99702
1174.13886 0.99695
1172.71046 0.99687
1171.28207 0.99681
1169.85368 0.99676
1168.42528 0.99672
1166.99689 0.99669
1165.56850 0.99667
1164.14011 0.99668
1162.71171 0.99671
1161.28332 0.99676
1159.85493 0.99682
1158.42653 0.99689
1156.99814 0.99697
1155.56975 0.99708
1154.14136 0.99720
1152.71296 0.99733
1151.28457 0.99743
1149.85618 0.99752
1148.42779 0.99758
1146.99939 0.99763
1145.57100 0.99766
1144.14261 0.99766
1142.71421 0.99763
1141.28582 0.99757
1139.85743 0.99747
1138.42904 0.99734
1137.00064 0.99718
1135.57225 0.99697
1134.14386 0.99672
1132.71546 0.99644
1131.28707 0.99613
1129.85868 0.99578
1128.43029 0.99538
1127.00189 0.99494
1125.57350 0.99445
1124.14511 0.99394
1122.71672 0.99339
1121.28832 0.99284
1119.85993 0.99230
1118.43154 0.99181
1117.00314 0.99139
1115.57475 0.99108
1114.14636 0.99087
1112.71797 0.99078
1111.28957 0.99077
1109.86118 0.99085
1108.43279 0.99099
1107.00440 0.99118
1105.57600 0.99139
1104.14761 0.99162
1102.71922 0.99186
1101.29082 0.99210
1099.86243 0.99231
1098.43404 0.99248
1097.00565 0.99260
1095.57725 0.99267
1094.14886 0.99270
1092.72047 0.99269
1091.29207 0.99267
1089.86368 0.99265
1088.43529 0.99261
1087.00690 0.99256
1085.57850 0.99250
1084.15011 0.99242
1082.72172 0.99234
1081.29333 0.99224
1079.86493 0.99214
1078.43654 0.99204
1077.00815 0.99194
1075.57975 0.99187
1074.15136 0.99181
1072.72297 0.99175
1071.29458 0.99167
1069.86618 0.99155
1068.43779 0.99137
1067.00940 0.99116
1065.58100 0.99090
1064.15261 0.99059
1062.72422 0.99025
1061.29583 0.98987
1059.86743 0.98945
1058.43904 0.98900
1057.01065 0.98852
1055.58226 0.98799
1054.15386 0.98740
1052.72547 0.98677
1051.29708 0.98612
1049.86868 0.98552
1048.44029 0.98499
1047.01190 0.98457
1045.58351 0.98431
1044.15511 0.98421
1042.72672 0.98428
1041.29833 0.98453
1039.86994 0.98490
1038.44154 0.98537
1037.01315 0.98590
1035.58476 0.98646
1034.15636 0.98707
1032.72797 0.98769
1031.29958 0.98833
1029.87119 0.98898
1028.44279 0.98962
1027.01440 0.99027
1025.58601 0.99092
1024.15761 0.99156
1022.72922 0.99219
1021.30083 0.99278
1019.87244 0.99332
1018.44404 0.99380
1017.01565 0.99424
1015.58726 0.99460
1014.15887 0.99487
1012.73047 0.99505
1011.30208 0.99514
1009.87369 0.99514
1008.44529 0.99506
1007.01690 0.99491
1005.58851 0.99469
1004.16012 0.99440
1002.73172 0.99407
1001.30333 0.99370
999.87494 0.99334
998.44654 0.99300
997.01815 0.99271
995.58976 0.99251
994.16137 0.99242
992.73297 0.99245
991.30458 0.99261
989.87619 0.99287
988.44780 0.99320
987.01940 0.99358
985.59101 0.99395
984.16262 0.99429
982.73422 0.99459
981.30583 0.99484
979.87744 0.99503
978.44905 0.99519
977.02065 0.99533
975.59226 0.99545
974.16387 0.99559
972.73547 0.99573
971.30708 0.99589
969.87869 0.99606
968.45030 0.99623
967.02190 0.99640
965.59351 0.99655
964.16512 0.99669
962.73673 0.99679
961.30833 0.99687
959.87994 0.99691
958.45155 0.99694
957.02315 0.99696
955.59476 0.99697
954.16637 0.99699
952.73798 0.99703
951.30958 0.99707
949.88119 0.99711
948.45280 0.99713
947.02441 0.99713
945.59601 0.99711
944.16762 0.99706
942.73923 0.99699
941.31083 0.99690
939.88244 0.99676
938.45405 0.99657
937.02566 0.99634
935.59726 0.99608
934.16887 0.99580
932.74048 0.99552
931.31208 0.99525
929.88369 0.99503
928.45530 0.99487
927.02691 0.99479
925.59851 0.99479
924.17012 0.99485
922.74173 0.99496
921.31334 0.99509
919.88494 0.99522
918.45655 0.99535
917.02816 0.99548
915.59976 0.99559
914.17137 0.99568
912.74298 0.99578
911.31459 0.99590
909.88619 0.99604
908.45780 0.99619
907.02941 0.99635
905.60101 0.99651
904.17262 0.99665
902.74423 0.99677
901.31584 0.99685
899.88744 0.99690
898.45905 0.99691
897.03066 0.99691
895.60227 0.99693
894.17387 0.99696
892.74548 0.99700
891.31709 0.99705
889.88869 0.99710
888.46030 0.99711
887.03191 0.99711
885.60352 0.99707
884.17512 0.99701
882.74673 0.99691
881.31834 0.99681
879.88995 0.99671
878.46155 0.99664
877.03316 0.99659
875.60477 0.99654
874.17637 0.99648
872.74798 0.99641
871.31959 0.99633
869.89120 0.99623
868.46280 0.99613
867.03441 0.99602
865.60602 0.99591
864.17762 0.99580
862.74923 0.99571
861.32084 0.99562
859.89245 0.99554
858.46405 0.99547
857.03566 0.99541
855.60727 0.99537
854.17888 0.99535
852.75048 0.99537
851.32209 0.99541
849.89370 0.99547
848.46530 0.99551
847.03691 0.99554
845.60852 0.99556
844.18013 0.99558
842.75173 0.99559
841.32334 0.99560
839.89495 0.99562
838.46655 0.99565
837.03816 0.99570
835.60977 0.99575
834.18138 0.99581
832.75298 0.99587
831.32459 0.99592
829.89620 0.99599
828.46781 0.99604
827.03941 0.99609
825.61102 0.99610
824.18263 0.99608
822.75423 0.99605
821.32584 0.99600
819.89745 0.99594
818.46906 0.99587
817.04066 0.99579
815.61227 0.99573
814.18388 0.99571
812.75548 0.99573
811.32709 0.99578
809.89870 0.99585
808.47031 0.99593
807.04191 0.99601
805.61352 0.99609
804.18513 0.99617
802.75674 0.99621
801.32834 0.99619
799.89995 0.99613
798.47156 0.99604
797.04316 0.99594
795.61477 0.99585
794.18638 0.99578
792.75799 0.99573
791.32959 0.99571
789.90120 0.99570
788.47281 0.99572
787.04442 0.99576
785.61602 0.99579
784.18763 0.99581
782.75924 0.99581
781.33084 0.99578
779.90245 0.99572
778.47406 0.99565
777.04567 0.99558
775.61727 0.99552
774.18888 0.99545
772.76049 0.99540
771.33209 0.99535
769.90370 0.99529
768.47531 0.99521
767.04692 0.99513
765.61852 0.99504
764.19013 0.99494
762.76174 0.99484
761.33335 0.99476
759.90495 0.99472
758.47656 0.99472
757.04817 0.99476
755.61977 0.99483
754.19138 0.99487
752.76299 0.99488
751.33460 0.99488
749.90620 0.99491
748.47781 0.99495
747.04942 0.99499
745.62102 0.99504
744.19263 0.99511
742.76424 0.99519
741.33585 0.99529
739.90745 0.99538
738.47906 0.99543
737.05067 0.99541
735.62228 0.99534
734.19388 0.99524
732.76549 0.99514
731.33710 0.99506
729.90870 0.99501
728.48031 0.99497
727.05192 0.99495
725.62353 0.99496
724.19513 0.99500
722.76674 0.99506
721.33835 0.99510
719.90996 0.99514
718.48156 0.99518
717.05317 0.99524
715.62478 0.99531
714.19638 0.99536
712.76799 0.99538
711.33960 0.99537
709.91121 0.99536
708.48281 0.99536
707.05442 0.99538
705.62603 0.99538
704.19763 0.99536
702.76924 0.99531
701.34085 0.99521
699.91246 0.99504
698.48406 0.99480
697.05567 0.99454
695.62728 0.99432
694.19889 0.99416
692.77049 0.99406
691.34210 0.99401
689.91371 0.99402
688.48531 0.99407
687.05692 0.99415
685.62853 0.99423
684.20014 0.99424
682.77174 0.99416
681.34335 0.99404
679.91496 0.99395
678.48656 0.99392
677.05817 0.99391
675.62978 0.99386
674.20139 0.99380
672.77299 0.99379
671.34460 0.99383
669.91621 0.99394
668.48782 0.99407
667.05942 0.99417
665.63103 0.99422
664.20264 0.99426
662.77424 0.99431
661.34585 0.99434
659.91746 0.99432
658.48907 0.99424
657.06067 0.99416
655.63228 0.99411
654.20389 0.99410
652.77549 0.99415
651.34710 0.99423
649.91871 0.99435
648.49032 0.99447
647.06192 0.99458
645.63353 0.99467
644.20514 0.99474
642.77675 0.99480
641.34835 0.99486
639.91996 0.99491
638.49157 0.99496
637.06317 0.99502
635.63478 0.99510
634.20639 0.99521
632.77800 0.99531
631.34960 0.99540
629.92121 0.99546
628.49282 0.99550
627.06443 0.99553
625.63603 0.99553
624.20764 0.99552
622.77925 0.99553
621.35085 0.99559
619.92246 0.99566
618.49407 0.99572
617.06568 0.99577
615.63728 0.99580
614.20889 0.99583
612.78050 0.99586
611.35210 0.99592
609.92371 0.99596
608.49532 0.99599
607.06693 0.99601
605.63853 0.99607
604.21014 0.99613
602.78175 0.99617
601.35336 0.99619
599.92496 0.99617
598.49657 0.99610
597.06818 0.99602
595.63978 0.99601
594.21139 0.99612
592.78300 0.99632
591.35461 0.99657
589.92621 0.99684
588.49782 0.99707
587.06943 0.99719
585.64103 0.99716
584.21264 0.99699
582.78425 0.99672
581.35586 0.99643
579.92746 0.99619
578.49907 0.99605
577.07068 0.99603
575.64229 0.99611
574.21389 0.99628
572.78550 0.99650
571.35711 0.99675
569.92871 0.99695
568.50032 0.99704
567.07193 0.99704
565.64354 0.99699
564.21514 0.99698
562.78675 0.99696
561.35836 0.99689
559.92997 0.99672
558.50157 0.99652
557.07318 0.99638
555.64479 0.99636
554.21639 0.99644
552.78800 0.99651
551.35961 0.99648
549.93122 0.99636
548.50282 0.99625
547.07443 0.99619
545.64604 0.99613
544.21764 0.99598
542.78925 0.99579
541.36086 0.99564
539.93247 0.99560
538.50407 0.99563
537.07568 0.99562
535.64729 0.99547
534.21890 0.99520
532.79050 0.99489
531.36211 0.99462
529.93372 0.99445
528.50532 0.99440
527.07693 0.99452
525.64854 0.99481
524.22015 0.99526
522.79175 0.99580
521.36336 0.99636
519.93497 0.99683
518.50657 0.99706
517.07818 0.99696
515.64979 0.99657
514.22140 0.99604
512.79300 0.99554
511.36461 0.99512
509.93622 0.99481
508.50783 0.99461
507.07943 0.99449
505.65104 0.99445
504.22265 0.99441
502.79425 0.99426
501.36586 0.99393
499.93747 0.99350
498.50908 0.99317
497.08068 0.99317
495.65229 0.99354
494.22390 0.99421
492.79550 0.99499
491.36711 0.99561
489.93872 0.99585
488.51033 0.99567
487.08193 0.99521
485.65354 0.99468
484.22515 0.99422
482.79676 0.99396
481.36836 0.99390
479.93997 0.99397
478.51158 0.99412
477.08318 0.99429
475.65479 0.99440
474.22640 0.99435
472.79801 0.99417
471.36961 0.99406
469.94122 0.99425
468.51283 0.99474
467.08444 0.99537
465.65604 0.99592
464.22765 0.99633
462.79926 0.99666
461.37086 0.99697
459.94247 0.99724
458.51408 0.99740
457.08569 0.99747
455.65729 0.99754
454.22890 0.99770
452.80051 0.99785
451.37211 0.99774
449.94372 0.99724
448.51533 0.99649
447.08694 0.99586
445.65854 0.99556
444.23015 0.99551
442.80176 0.99549
441.37337 0.99543
439.94497 0.99541
438.51658 0.99550
437.08819 0.99566
435.65979 0.99577
434.23140 0.99573
432.80301 0.99555
431.37462 0.99526
429.94622 0.99494
428.51783 0.99469
427.08944 0.99458
425.66104 0.99469
424.23265 0.99508
422.80426 0.99571
421.37587 0.99652
419.94747 0.99739
418.51908 0.99823
417.09069 0.99898
415.66230 0.99954
414.23390 0.99971
412.80551 0.99941
411.37712 0.99873
409.94872 0.99792
408.52033 0.99727
407.09194 0.99727
405.66355 0.99727
404.23515 0.99727
402.80676 0.99727
401.37837 0.99727
399.94998 0.99727
