3998.07803 0.99969
3996.64964 0.99969
3995.22124 0.99970
3993.79285 0.99971
3992.36445 0.99971
3990.93605 0.99972
3989.50766 0.99973
3988.07926 0.99973
3986.65087 0.99974
3985.22247 0.99978
3983.79408 0.99982
3982.36568 0.99986
3980.93729 0.99990
3979.50889 0.99993
3978.08050 0.99996
3976.65210 0.99998
3975.22371 0.99999
3973.79531 1.00000
3972.36692 1.00000
3970.93852 1.00000
3969.51013 0.99999
3968.08173 0.99997
3966.65334 0.99995
3965.22494 0.99991
3963.79655 0.99988
3962.36815 0.99984
3960.93976 0.99981
3959.51136 0.99979
3958.08297 0.99978
3956.65457 0.99977
3955.22618 0.99978
3953.79778 0.99978
3952.36939 0.99979
3950.94099 0.99979
3949.51260 0.99978
3948.08420 0.99976
3946.65581 0.99974
3945.22741 0.99971
3943.79901 0.99968
3942.37062 0.99965
3940.94222 0.99963
3939.51383 0.99962
3938.08543 0.99962
3936.65704 0.99963
3935.22864 0.99966
3933.80025 0.99968
3932.37185 0.99972
3930.94346 0.99974
3929.51506 0.99977
3928.08667 0.99978
3926.65827 0.99979
3925.22988 0.99979
3923.80148 0.99979
3922.37309 0.99978
3920.94469 0.99976
3919.51630 0.99974
3918.08790 0.99971
3916.65951 0.99968
3915.23111 0.99966
3913.80272 0.99963
3912.37432 0.99961
3910.94593 0.99960
3909.51753 0.99961
3908.08914 0.99962
3906.66074 0.99963
3905.23235 0.99965
3903.80395 0.99967
3902.37556 0.99968
3900.94716 0.99969
3899.51877 0.99968
3898.09037 0.99966
3896.66197 0.99963
3895.23358 0.99960
3893.80518 0.99957
3892.37679 0.99955
3890.94839 0.99954
3889.52000 0.99953
3888.09160 0.99955
3886.66321 0.99957
3885.23481 0.99961
3883.80642 0.99964
3882.37802 0.99967
3880.94963 0.99970
3879.52123 0.99973
3878.09284 0.99976
3876.66444 0.99978
3875.23605 0.99979
3873.80765 0.99979
3872.37926 0.99980
3870.95086 0.99980
3869.52247 0.99980
3868.09407 0.99980
3866.66568 0.99979
3865.23728 0.99978
3863.80889 0.99976
3862.38049 0.99974
3860.95210 0.99970
3859.52370 0.99964
3858.09531 0.99958
3856.66691 0.99951
3855.23852 0.99945
3853.81012 0.99939
3852.38173 0.99935
3850.95333 0.99933
3849.52493 0.99933
3848.09654 0.99935
3846.66814 0.99939
3845.23975 0.99944
3843.81135 0.99949
3842.38296 0.99953
3840.95456 0.99956
3839.52617 0.99957
3838.09777 0.99957
3836.66938 0.99955
3835.24098 0.99951
3833.81259 0.99948
3832.38419 0.99944
3830.95580 0.99941
3829.52740 0.99939
3828.09901 0.99938
3826.67061 0.99936
3825.24222 0.99935
3823.81382 0.99933
3822.38543 0.99932
3820.95703 0.99930
3819.52864 0.99929
3818.10024 0.99927
3816.67185 0.99926
3815.24345 0.99925
3813.81506 0.99925
3812.38666 0.99924
3810.95827 0.99924
3809.52987 0.99923
3808.10148 0.99922
3806.67308 0.99921
3805.24469 0.99919
3803.81629 0.99917
3802.38789 0.99915
3800.95950 0.99914
3799.53110 0.99914
3798.10271 0.99913
3796.67431 0.99913
3795.24592 0.99912
3793.81752 0.99910
3792.38913 0.99908
3790.96073 0.99905
3789.53234 0.99901
3788.10394 0.99896
3786.67555 0.99891
3785.24715 0.99886
3783.81876 0.99883
3782.39036 0.99880
3780.96197 0.99880
3779.53357 0.99882
3778.10518 0.99886
3776.67678 0.99892
3775.24839 0.99899
3773.81999 0.99905
3772.39160 0.99909
3770.96320 0.99912
3769.53481 0.99911
3768.10641 0.99908
3766.67802 0.99904
3765.24962 0.99898
3763.82123 0.99893
3762.39283 0.99889
3760.96444 0.99886
3759.53604 0.99884
3758.10765 0.99882
3756.67925 0.99881
3755.25085 0.99880
3753.82246 0.99878
3752.39406 0.99876
3750.96567 0.99873
3749.53727 0.99869
3748.10888 0.99865
3746.68048 0.99860
3745.25209 0.99855
3743.82369 0.99851
3742.39530 0.99846
3740.96690 0.99840
3739.53851 0.99834
3738.11011 0.99827
3736.68172 0.99819
3735.25332 0.99811
3733.82493 0.99803
3732.39653 0.99796
3730.96814 0.99791
3729.53974 0.99788
3728.11135 0.99789
3726.68295 0.99793
3725.25456 0.99800
3723.82616 0.99808
3722.39777 0.99816
3720.96937 0.99823
3719.54098 0.99828
3718.11258 0.99830
3716.68419 0.99829
3715.25579 0.99825
3713.82740 0.99819
3712.39900 0.99812
3710.97061 0.99805
3709.54221 0.99798
3708.11381 0.99793
3706.68542 0.99789
3705.25702 0.99787
3703.82863 0.99788
3702.40023 0.99791
3700.97184 0.99796
3699.54344 0.99804
3698.11505 0.99813
3696.68665 0.99822
3695.25826 0.99832
3693.82986 0.99841
3692.40147 0.99848
3690.97307 0.99855
3689.54468 0.99861
3688.11628 0.99866
3686.68789 0.99871
3685.25949 0.99876
3683.83110 0.99882
3682.40270 0.99889
3680.97431 0.99897
3679.54591 0.99907
3678.11752 0.99917
3676.68912 0.99927
3675.26073 0.99935
3673.83233 0.99943
3672.40394 0.99947
3670.97554 0.99949
3669.54715 0.99947
3668.11875 0.99941
3666.69036 0.99934
3665.26196 0.99927
3663.83357 0.99920
3662.40517 0.99916
3660.97677 0.99915
3659.54838 0.99917
3658.11998 0.99922
3656.69159 0.99929
3655.26319 0.99938
3653.83480 0.99946
3652.40640 0.99952
3650.97801 0.99956
3649.54961 0.99958
3648.12122 0.99958
3646.69282 0.99955
3645.26443 0.99951
3643.83603 0.99944
3642.40764 0.99937
3640.97924 0.99928
3639.55085 0.99919
3638.12245 0.99909
3636.69406 0.99900
3635.26566 0.99891
3633.83727 0.99882
3632.40887 0.99875
3630.98048 0.99868
3629.55208 0.99862
3628.12369 0.99858
3626.69529 0.99858
3625.26690 0.99861
3623.83850 0.99868
3622.41011 0.99877
3620.98171 0.99888
3619.55332 0.99899
3618.12492 0.99911
3616.69653 0.99920
3615.26813 0.99926
3613.83973 0.99927
3612.41134 0.99924
3610.98294 0.99916
3609.55455 0.99905
3608.12615 0.99892
3606.69776 0.99878
3605.26936 0.99865
3603.84097 0.99854
3602.41257 0.99846
3600.98418 0.99842
3599.55578 0.99840
3598.12739 0.99841
3596.69899 0.99844
3595.27060 0.99847
3593.84220 0.99849
3592.41381 0.99848
3590.98541 0.99847
3589.55702 0.99843
3588.12862 0.99839
3586.70023 0.99834
3585.27183 0.99829
3583.84344 0.99825
3582.41504 0.99821
3580.98665 0.99819
3579.55825 0.99819
3578.12986 0.99820
3576.70146 0.99823
3575.27307 0.99826
3573.84467 0.99829
3572.41628 0.99833
3570.98788 0.99835
3569.55949 0.99838
3568.13109 0.99839
3566.70269 0.99841
3565.27430 0.99841
3563.84590 0.99841
3562.41751 0.99840
3560.98911 0.99838
3559.56072 0.99835
3558.13232 0.99831
3556.70393 0.99826
3555.27553 0.99821
3553.84714 0.99817
3552.41874 0.99814
3550.99035 0.99812
3549.56195 0.99812
3548.13356 0.99813
3546.70516 0.99816
3545.27677 0.99819
3543.84837 0.99821
3542.41998 0.99822
3540.99158 0.99823
3539.56319 0.99821
3538.13479 0.99819
3536.70640 0.99815
3535.27800 0.99809
3533.84961 0.99804
3532.42121 0.99798
3530.99282 0.99793
3529.56442 0.99789
3528.13603 0.99786
3526.70763 0.99784
3525.27924 0.99783
3523.85084 0.99782
3522.42245 0.99781
3520.99405 0.99781
3519.56565 0.99780
3518.13726 0.99778
3516.70886 0.99777
3515.28047 0.99777
3513.85207 0.99776
3512.42368 0.99776
3510.99528 0.99777
3509.56689 0.99777
3508.13849 0.99777
3506.71010 0.99777
3505.28170 0.99776
3503.85331 0.99775
3502.42491 0.99774
3500.99652 0.99774
3499.56812 0.99774
3498.13973 0.99774
3496.71133 0.99776
3495.28294 0.99777
3493.85454 0.99779
3492.42615 0.99781
3490.99775 0.99784
3489.56936 0.99787
3488.14096 0.99791
3486.71257 0.99795
3485.28417 0.99798
3483.85578 0.99800
3482.42738 0.99802
3480.99899 0.99802
3479.57059 0.99801
3478.14220 0.99798
3476.71380 0.99794
3475.28541 0.99790
3473.85701 0.99787
3472.42861 0.99783
3471.00022 0.99781
3469.57182 0.99780
3468.14343 0.99780
3466.71503 0.99781
3465.28664 0.99783
3463.85824 0.99785
3462.42985 0.99787
3461.00145 0.99789
3459.57306 0.99791
3458.14466 0.99793
3456.71627 0.99796
3455.28787 0.99800
3453.85948 0.99805
3452.43108 0.99812
3451.00269 0.99819
3449.57429 0.99828
3448.14590 0.99836
3446.71750 0.99845
3445.28911 0.99851
3443.86071 0.99856
3442.43232 0.99858
3441.00392 0.99858
3439.57553 0.99856
3438.14713 0.99852
3436.71874 0.99848
3435.29034 0.99845
3433.86195 0.99844
3432.43355 0.99845
3431.00516 0.99849
3429.57676 0.99855
3428.14837 0.99863
3426.71997 0.99873
3425.29157 0.99885
3423.86318 0.99897
3422.43478 0.99910
3421.00639 0.99921
3419.57799 0.99931
3418.14960 0.99940
3416.72120 0.99947
3415.29281 0.99952
3413.86441 0.99955
3412.43602 0.99958
3411.00762 0.99960
3409.57923 0.99962
3408.15083 0.99964
3406.72244 0.99966
3405.29404 0.99967
3403.86565 0.99968
3402.43725 0.99967
3401.00886 0.99965
3399.58046 0.99962
3398.15207 0.99959
3396.72367 0.99954
3395.29528 0.99950
3393.86688 0.99945
3392.43849 0.99942
3391.01009 0.99939
3389.58170 0.99938
3388.15330 0.99938
3386.72491 0.99939
3385.29651 0.99942
3383.86812 0.99946
3382.43972 0.99951
3381.01133 0.99957
3379.58293 0.99963
3378.15453 0.99969
3376.72614 0.99975
3375.29774 0.99979
3373.86935 0.99983
3372.44095 0.99985
3371.01256 0.99985
3369.58416 0.99984
3368.15577 0.99983
3366.72737 0.99982
3365.29898 0.99981
3363.87058 0.99982
3362.44219 0.99983
3361.01379 0.99986
3359.58540 0.99990
3358.15700 0.99995
3356.72861 0.99998
3355.30021 1.00000
3353.87182 1.00000
3352.44342 0.99997
3351.01503 0.99992
3349.58663 0.99985
3348.15824 0.99977
3346.72984 0.99968
3345.30145 0.99961
3343.87305 0.99955
3342.44466 0.99952
3341.01626 0.99950
3339.58787 0.99949
3338.15947 0.99950
3336.73108 0.99950
3335.30268 0.99951
3333.87428 0.99950
3332.44589 0.99949
3331.01749 0.99948
3329.58910 0.99947
3328.16070 0.99945
3326.73231 0.99944
3325.30391 0.99943
3323.87552 0.99941
3322.44712 0.99940
3321.01873 0.99938
3319.59033 0.99937
3318.16194 0.99934
3316.73354 0.99931
3315.30515 0.99925
3313.87675 0.99919
3312.44836 0.99910
3311.01996 0.99901
3309.59157 0.99891
3308.16317 0.99880
3306.73478 0.99869
3305.30638 0.99858
3303.87799 0.99848
3302.44959 0.99840
3301.02120 0.99833
3299.59280 0.99829
3298.16441 0.99826
3296.73601 0.99825
3295.30762 0.99827
3293.87922 0.99831
3292.45083 0.99838
3291.02243 0.99845
3289.59404 0.99854
3288.16564 0.99862
3286.73724 0.99871
3285.30885 0.99880
3283.88045 0.99887
3282.45206 0.99892
3281.02366 0.99896
3279.59527 0.99898
3278.16687 0.99898
3276.73848 0.99897
3275.31008 0.99896
3273.88169 0.99895
3272.45329 0.99896
3271.02490 0.99897
3269.59650 0.99900
3268.16811 0.99903
3266.73971 0.99905
3265.31132 0.99906
3263.88292 0.99906
3262.45453 0.99905
3261.02613 0.99902
3259.59774 0.99900
3258.16934 0.99899
3256.74095 0.99901
3255.31255 0.99905
3253.88416 0.99912
3252.45576 0.99922
3251.02737 0.99934
3249.59897 0.99948
3248.17058 0.99963
3246.74218 0.99977
3245.31379 0.99988
3243.88539 0.99996
3242.45700 0.99999
3241.02860 0.99999
3239.60020 0.99996
3238.17181 0.99990
3236.74341 0.99983
3235.31502 0.99976
3233.88662 0.99970
3232.45823 0.99966
3231.02983 0.99964
3229.60144 0.99965
3228.17304 0.99968
3226.74465 0.99972
3225.31625 0.99978
3223.88786 0.99985
3222.45946 0.99991
3221.03107 0.99995
3219.60267 0.99999
3218.17428 1.00000
3216.74588 1.00000
3215.31749 0.99999
3213.88909 0.99997
3212.46070 0.99994
3211.03230 0.99991
3209.60391 0.99987
3208.17551 0.99984
3206.74712 0.99981
3205.31872 0.99979
3203.89033 0.99975
3202.46193 0.99972
3201.03354 0.99968
3199.60514 0.99964
3198.17675 0.99959
3196.74835 0.99954
3195.31996 0.99950
3193.89156 0.99947
3192.46316 0.99946
3191.03477 0.99945
3189.60637 0.99945
3188.17798 0.99945
3186.74958 0.99945
3185.32119 0.99944
3183.89279 0.99941
3182.46440 0.99936
3181.03600 0.99930
3179.60761 0.99923
3178.17921 0.99915
3176.75082 0.99907
3175.32242 0.99898
3173.89403 0.99891
3172.46563 0.99884
3171.03724 0.99879
3169.60884 0.99874
3168.18045 0.99870
3166.75205 0.99866
3165.32366 0.99862
3163.89526 0.99857
3162.46687 0.99851
3161.03847 0.99843
3159.61008 0.99836
3158.18168 0.99828
3156.75329 0.99821
3155.32489 0.99814
3153.89650 0.99809
3152.46810 0.99806
3151.03971 0.99803
3149.61131 0.99801
3148.18292 0.99799
3146.75452 0.99796
3145.32612 0.99791
3143.89773 0.99785
3142.46933 0.99778
3141.04094 0.99769
3139.61254 0.99760
3138.18415 0.99751
3136.75575 0.99742
3135.32736 0.99735
3133.89896 0.99728
3132.47057 0.99722
3131.04217 0.99716
3129.61378 0.99711
3128.18538 0.99706
3126.75699 0.99701
3125.32859 0.99695
3123.90020 0.99689
3122.47180 0.99682
3121.04341 0.99675
3119.61501 0.99667
3118.18662 0.99660
3116.75822 0.99653
3115.32983 0.99647
3113.90143 0.99641
3112.47304 0.99637
3111.04464 0.99635
3109.61625 0.99632
3108.18785 0.99631
3106.75946 0.99630
3105.33106 0.99630
3103.90267 0.99630
3102.47427 0.99629
3101.04588 0.99626
3099.61748 0.99621
3098.18908 0.99614
3096.76069 0.99605
3095.33229 0.99593
3093.90390 0.99581
3092.47550 0.99568
3091.04711 0.99556
3089.61871 0.99546
3088.19032 0.99538
3086.76192 0.99533
3085.33353 0.99531
3083.90513 0.99531
3082.47674 0.99533
3081.04834 0.99536
3079.61995 0.99540
3078.19155 0.99542
3076.76316 0.99543
3075.33476 0.99541
3073.90637 0.99537
3072.47797 0.99530
3071.04958 0.99521
3069.62118 0.99511
3068.19279 0.99500
3066.76439 0.99490
3065.33600 0.99481
3063.90760 0.99475
3062.47921 0.99472
3061.05081 0.99471
3059.62242 0.99473
3058.19402 0.99477
3056.76563 0.99482
3055.33723 0.99487
3053.90884 0.99492
3052.48044 0.99494
3051.05204 0.99495
3049.62365 0.99495
3048.19525 0.99492
3046.76686 0.99489
3045.33846 0.99485
3043.91007 0.99481
3042.48167 0.99478
3041.05328 0.99476
3039.62488 0.99476
3038.19649 0.99476
3036.76809 0.99477
3035.33970 0.99478
3033.91130 0.99481
3032.48291 0.99484
3031.05451 0.99488
3029.62612 0.99493
3028.19772 0.99497
3026.76933 0.99501
3025.34093 0.99505
3023.91254 0.99509
3022.48414 0.99512
3021.05575 0.99516
3019.62735 0.99518
3018.19896 0.99520
3016.77056 0.99523
3015.34217 0.99525
3013.91377 0.99529
3012.48538 0.99533
3011.05698 0.99537
3009.62859 0.99542
3008.20019 0.99547
3006.77180 0.99552
3005.34340 0.99556
3003.91500 0.99559
3002.48661 0.99561
3001.05821 0.99561
2999.62982 0.99561
2998.20142 0.99560
2996.77303 0.99558
2995.34463 0.99556
2993.91624 0.99553
2992.48784 0.99549
2991.05945 0.99545
2989.63105 0.99539
2988.20266 0.99532
2986.77426 0.99523
2985.34587 0.99512
2983.91747 0.99500
2982.48908 0.99486
2981.06068 0.99470
2979.63229 0.99454
2978.20389 0.99437
2976.77550 0.99420
2975.34710 0.99404
2973.91871 0.99388
2972.49031 0.99373
2971.06192 0.99358
2969.63352 0.99343
2968.20513 0.99328
2966.77673 0.99314
2965.34834 0.99301
2963.91994 0.99288
2962.49155 0.99277
2961.06315 0.99268
2959.63476 0.99259
2958.20636 0.99253
2956.77796 0.99248
2955.34957 0.99244
2953.92117 0.99242
2952.49278 0.99241
2951.06438 0.99241
2949.63599 0.99242
2948.20759 0.99243
2946.77920 0.99244
2945.35080 0.99246
2943.92241 0.99247
2942.49401 0.99249
2941.06562 0.99251
2939.63722 0.99253
2938.20883 0.99256
2936.78043 0.99261
2935.35204 0.99266
2933.92364 0.99272
2932.49525 0.99279
2931.06685 0.99288
2929.63846 0.99297
2928.21006 0.99308
2926.78167 0.99319
2925.35327 0.99331
2923.92488 0.99343
2922.49648 0.99354
2921.06809 0.99365
2919.63969 0.99374
2918.21130 0.99382
2916.78290 0.99390
2915.35451 0.99397
2913.92611 0.99404
2912.49772 0.99410
2911.06932 0.99417
2909.64092 0.99424
2908.21253 0.99430
2906.78413 0.99436
2905.35574 0.99442
2903.92734 0.99446
2902.49895 0.99448
2901.07055 0.99449
2899.64216 0.99447
2898.21376 0.99444
2896.78537 0.99440
2895.35697 0.99435
2893.92858 0.99430
2892.50018 0.99427
2891.07179 0.99424
2889.64339 0.99424
2888.21500 0.99425
2886.78660 0.99427
2885.35821 0.99431
2883.92981 0.99435
2882.50142 0.99440
2881.07302 0.99444
2879.64463 0.99448
2878.21623 0.99451
2876.78784 0.99453
2875.35944 0.99456
2873.93105 0.99458
2872.50265 0.99460
2871.07426 0.99462
2869.64586 0.99465
2868.21747 0.99468
2866.78907 0.99471
2865.36068 0.99474
2863.93228 0.99477
2862.50388 0.99480
2861.07549 0.99483
2859.64709 0.99487
2858.21870 0.99490
2856.79030 0.99494
2855.36191 0.99498
2853.93351 0.99502
2852.50512 0.99507
2851.07672 0.99512
2849.64833 0.99518
2848.21993 0.99524
2846.79154 0.99532
2845.36314 0.99540
2843.93475 0.99549
2842.50635 0.99558
2841.07796 0.99568
2839.64956 0.99578
2838.22117 0.99587
2836.79277 0.99596
2835.36438 0.99603
2833.93598 0.99610
2832.50759 0.99615
2831.07919 0.99619
2829.65080 0.99622
2828.22240 0.99624
2826.79401 0.99627
2825.36561 0.99630
2823.93722 0.99634
2822.50882 0.99638
2821.08043 0.99643
2819.65203 0.99649
2818.22364 0.99655
2816.79524 0.99661
2815.36684 0.99666
2813.93845 0.99671
2812.51005 0.99675
2811.08166 0.99679
2809.65326 0.99683
2808.22487 0.99687
2806.79647 0.99690
2805.36808 0.99694
2803.93968 0.99698
2802.51129 0.99702
2801.08289 0.99706
2799.65450 0.99710
2798.22610 0.99714
2796.79771 0.99717
2795.36931 0.99720
2793.94092 0.99723
2792.51252 0.99725
2791.08413 0.99727
2789.65573 0.99730
2788.22734 0.99732
2786.79894 0.99734
2785.37055 0.99737
2783.94215 0.99740
2782.51376 0.99743
2781.08536 0.99747
2779.65697 0.99750
2778.22857 0.99754
2776.80018 0.99757
2775.37178 0.99759
2773.94339 0.99762
2772.51499 0.99764
2771.08660 0.99767
2769.65820 0.99769
2768.22980 0.99772
2766.80141 0.99774
2765.37301 0.99776
2763.94462 0.99777
2762.51622 0.99778
2761.08783 0.99779
2759.65943 0.99779
2758.23104 0.99779
2756.80264 0.99779
2755.37425 0.99779
2753.94585 0.99779
2752.51746 0.99780
2751.08906 0.99782
2749.66067 0.99783
2748.23227 0.99786
2746.80388 0.99788
2745.37548 0.99789
2743.94709 0.99791
2742.51869 0.99792
2741.09030 0.99792
2739.66190 0.99792
2738.23351 0.99792
2736.80511 0.99793
2735.37672 0.99793
2733.94832 0.99795
2732.51993 0.99796
2731.09153 0.99798
2729.66314 0.99800
2728.23474 0.99802
2726.80635 0.99803
2725.37795 0.99805
2723.94956 0.99806
2722.52116 0.99807
2721.09276 0.99808
2719.66437 0.99810
2718.23597 0.99812
2716.80758 0.99816
2715.37918 0.99820
2713.95079 0.99824
2712.52239 0.99829
2711.09400 0.99833
2709.66560 0.99837
2708.23721 0.99840
2706.80881 0.99842
2705.38042 0.99844
2703.95202 0.99844
2702.52363 0.99844
2701.09523 0.99843
2699.66684 0.99843
2698.23844 0.99842
2696.81005 0.99843
2695.38165 0.99844
2693.95326 0.99845
2692.52486 0.99848
2691.09647 0.99850
2689.66807 0.99854
2688.23968 0.99857
2686.81128 0.99861
2685.38289 0.99864
2683.95449 0.99868
2682.52610 0.99870
2681.09770 0.99872
2679.66931 0.99874
2678.24091 0.99875
2676.81252 0.99876
2675.38412 0.99876
2673.95572 0.99876
2672.52733 0.99876
2671.09893 0.99875
2669.67054 0.99875
2668.24214 0.99874
2666.81375 0.99874
2665.38535 0.99874
2663.95696 0.99874
2662.52856 0.99874
2661.10017 0.99875
2659.67177 0.99877
2658.24338 0.99879
2656.81498 0.99881
2655.38659 0.99883
2653.95819 0.99885
2652.52980 0.99887
2651.10140 0.99889
2649.67301 0.99889
2648.24461 0.99889
2646.81622 0.99889
2645.38782 0.99887
2643.95943 0.99885
2642.53103 0.99883
2641.10264 0.99881
2639.67424 0.99880
2638.24585 0.99880
2636.81745 0.99880
2635.38906 0.99881
2633.96066 0.99883
2632.53227 0.99886
2631.10387 0.99889
2629.67548 0.99893
2628.24708 0.99897
2626.81868 0.99901
2625.39029 0.99905
2623.96189 0.99908
2622.53350 0.99910
2621.10510 0.99912
2619.67671 0.99913
2618.24831 0.99915
2616.81992 0.99916
2615.39152 0.99918
2613.96313 0.99920
2612.53473 0.99923
2611.10634 0.99926
2609.67794 0.99928
2608.24955 0.99931
2606.82115 0.99932
2605.39276 0.99933
2603.96436 0.99932
2602.53597 0.99931
2601.10757 0.99929
2599.67918 0.99927
2598.25078 0.99925
2596.82239 0.99923
2595.39399 0.99921
2593.96560 0.99920
2592.53720 0.99921
2591.10881 0.99922
2589.68041 0.99924
2588.25202 0.99926
2586.82362 0.99929
2585.39523 0.99932
2583.96683 0.99935
2582.53843 0.99938
2581.11004 0.99941
2579.68164 0.99944
2578.25325 0.99947
2576.82485 0.99950
2575.39646 0.99952
2573.96806 0.99954
2572.53967 0.99956
2571.11127 0.99958
2569.68288 0.99960
2568.25448 0.99962
2566.82609 0.99964
2565.39769 0.99966
2563.96930 0.99968
2562.54090 0.99970
2561.11251 0.99970
2559.68411 0.99969
2558.25572 0.99967
2556.82732 0.99965
2555.39893 0.99961
2553.97053 0.99957
2552.54214 0.99953
2551.11374 0.99950
2549.68535 0.99948
2548.25695 0.99948
2546.82856 0.99949
2545.40016 0.99951
2543.97177 0.99954
2542.54337 0.99958
2541.11498 0.99961
2539.68658 0.99964
2538.25819 0.99966
2536.82979 0.99967
2535.40139 0.99966
2533.97300 0.99966
2532.54460 0.99965
2531.11621 0.99964
2529.68781 0.99963
2528.25942 0.99963
2526.83102 0.99964
2525.40263 0.99964
2523.97423 0.99965
2522.54584 0.99967
2521.11744 0.99968
2519.68905 0.99970
2518.26065 0.99972
2516.83226 0.99973
2515.40386 0.99976
2513.97547 0.99978
2512.54707 0.99981
2511.11868 0.99984
2509.69028 0.99988
2508.26189 0.99991
2506.83349 0.99994
2505.40510 0.99997
2503.97670 0.99999
2502.54831 1.00000
2501.11991 1.00000
2499.69152 0.99999
2498.26312 0.99997
2496.83473 0.99994
2495.40633 0.99989
2493.97794 0.99984
2492.54954 0.99979
2491.12115 0.99974
2489.69275 0.99971
2488.26435 0.99968
2486.83596 0.99968
2485.40756 0.99968
2483.97917 0.99971
2482.55077 0.99974
2481.12238 0.99978
2479.69398 0.99981
2478.26559 0.99983
2476.83719 0.99985
2475.40880 0.99986
2473.98040 0.99986
2472.55201 0.99986
2471.12361 0.99984
2469.69522 0.99983
2468.26682 0.99981
2466.83843 0.99980
2465.41003 0.99979
2463.98164 0.99978
2462.55324 0.99979
2461.12485 0.99979
2459.69645 0.99980
2458.26806 0.99982
2456.83966 0.99984
2455.41127 0.99986
2453.98287 0.99988
2452.55448 0.99990
2451.12608 0.99993
2449.69769 0.99995
2448.26929 0.99997
2446.84090 0.99998
2445.41250 0.99999
2443.98411 1.00000
2442.55571 1.00000
2441.12731 1.00000
2439.69892 0.99999
2438.27052 0.99998
2436.84213 0.99997
2435.41373 0.99996
2433.98534 0.99994
2432.55694 0.99993
2431.12855 0.99991
2429.70015 0.99988
2428.27176 0.99986
2426.84336 0.99984
2425.41497 0.99982
2423.98657 0.99981
2422.55818 0.99982
2421.12978 0.99982
2419.70139 0.99984
2418.27299 0.99986
2416.84460 0.99988
2415.41620 0.99990
2413.98781 0.99993
2412.55941 0.99995
2411.13102 0.99997
2409.70262 0.99998
2408.27423 0.99999
2406.84583 0.99999
2405.41744 0.99999
2403.98904 0.99998
2402.56065 0.99998
2401.13225 0.99997
2399.70386 0.99996
2398.27546 0.99996
2396.84707 0.99997
2395.41867 0.99997
2393.99027 0.99997
2392.56188 0.99995
2391.13348 0.99989
2389.70509 0.99979
2388.27669 0.99965
2386.84830 0.99944
2385.41990 0.99917
2383.99151 0.99884
2382.56311 0.99844
2381.13472 0.99796
2379.70632 0.99740
2378.27793 0.99676
2376.84953 0.99605
2375.42114 0.99527
2373.99274 0.99442
2372.56435 0.99351
2371.13595 0.99255
2369.70756 0.99158
2368.27916 0.99061
2366.85077 0.98972
2365.42237 0.98894
2363.99398 0.98835
2362.56558 0.98799
2361.13719 0.98789
2359.70879 0.98807
2358.28040 0.98848
2356.85200 0.98906
2355.42361 0.98975
2353.99521 0.99046
2352.56682 0.99109
2351.13842 0.99159
2349.71003 0.99192
2348.28163 0.99206
2346.85323 0.99202
2345.42484 0.99184
2343.99644 0.99157
2342.56805 0.99126
2341.13965 0.99098
2339.71126 0.99078
2338.28286 0.99068
2336.85447 0.99071
2335.42607 0.99083
2333.99768 0.99104
2332.56928 0.99129
2331.14089 0.99157
2329.71249 0.99186
2328.28410 0.99213
2326.85570 0.99241
2325.42731 0.99268
2323.99891 0.99297
2322.57052 0.99326
2321.14212 0.99356
2319.71373 0.99387
2318.28533 0.99418
2316.85694 0.99449
2315.42854 0.99480
2314.00015 0.99512
2312.57175 0.99545
2311.14336 0.99578
2309.71496 0.99612
2308.28657 0.99645
2306.85817 0.99678
2305.42978 0.99709
2304.00138 0.99738
2302.57299 0.99766
2301.14459 0.99791
2299.71619 0.99813
2298.28780 0.99832
2296.85940 0.99847
2295.43101 0.99859
2294.00261 0.99869
2292.57422 0.99875
2291.14582 0.99881
2289.71743 0.99884
2288.28903 0.99888
2286.86064 0.99890
2285.43224 0.99891
2284.00385 0.99892
2282.57545 0.99892
2281.14706 0.99892
2279.71866 0.99891
2278.29027 0.99891
2276.86187 0.99892
2275.43348 0.99894
2274.00508 0.99898
2272.57669 0.99902
2271.14829 0.99908
2269.71990 0.99915
2268.29150 0.99923
2266.86311 0.99931
2265.43471 0.99938
2264.00632 0.99945
2262.57792 0.99950
2261.14953 0.99954
2259.72113 0.99957
2258.29274 0.99959
2256.86434 0.99960
2255.43595 0.99960
2254.00755 0.99960
2252.57915 0.99960
2251.15076 0.99960
2249.72236 0.99959
2248.29397 0.99957
2246.86557 0.99955
2245.43718 0.99952
2244.00878 0.99949
2242.58039 0.99946
2241.15199 0.99943
2239.72360 0.99942
2238.29520 0.99941
2236.86681 0.99940
2235.43841 0.99939
2234.01002 0.99937
2232.58162 0.99932
2231.15323 0.99926
2229.72483 0.99917
2228.29644 0.99906
2226.86804 0.99894
2225.43965 0.99882
2224.01125 0.99872
2222.58286 0.99864
2221.15446 0.99860
2219.72607 0.99858
2218.29767 0.99859
2216.86928 0.99861
2215.44088 0.99866
2214.01249 0.99871
2212.58409 0.99875
2211.15570 0.99879
2209.72730 0.99882
2208.29891 0.99885
2206.87051 0.99887
2205.44211 0.99890
2204.01372 0.99893
2202.58532 0.99895
2201.15693 0.99897
2199.72853 0.99897
2198.30014 0.99896
2196.87174 0.99895
2195.44335 0.99895
2194.01495 0.99896
2192.58656 0.99899
2191.15816 0.99907
2189.72977 0.99917
2188.30137 0.99931
2186.87298 0.99946
2185.44458 0.99962
2184.01619 0.99976
2182.58779 0.99988
2181.15940 0.99997
2179.73100 1.00000
2178.30261 0.99998
2176.87421 0.99991
2175.44582 0.99978
2174.01742 0.99960
2172.58903 0.99938
2171.16063 0.99914
2169.73224 0.99891
2168.30384 0.99870
2166.87545 0.99855
2165.44705 0.99844
2164.01866 0.99839
2162.59026 0.99840
2161.16187 0.99848
2159.73347 0.99862
2158.30507 0.99879
2156.87668 0.99896
2155.44828 0.99913
2154.01989 0.99928
2152.59149 0.99939
2151.16310 0.99945
2149.73470 0.99947
2148.30631 0.99946
2146.87791 0.99943
2145.44952 0.99940
2144.02112 0.99938
2142.59273 0.99937
2141.16433 0.99938
2139.73594 0.99939
2138.30754 0.99942
2136.87915 0.99945
2135.45075 0.99947
2134.02236 0.99947
2132.59396 0.99947
2131.16557 0.99946
2129.73717 0.99944
2128.30878 0.99941
2126.88038 0.99936
2125.45199 0.99931
2124.02359 0.99926
2122.59520 0.99921
2121.16680 0.99916
2119.73841 0.99911
2118.31001 0.99906
2116.88162 0.99901
2115.45322 0.99899
2114.02483 0.99898
2112.59643 0.99899
2111.16803 0.99904
2109.73964 0.99910
2108.31124 0.99918
2106.88285 0.99927
2105.45445 0.99934
2104.02606 0.99940
2102.59766 0.99943
2101.16927 0.99943
2099.74087 0.99940
2098.31248 0.99935
2096.88408 0.99927
2095.45569 0.99919
2094.02729 0.99912
2092.59890 0.99907
2091.17050 0.99907
2089.74211 0.99911
2088.31371 0.99919
2086.88532 0.99931
2085.45692 0.99945
2084.02853 0.99959
2082.60013 0.99971
2081.17174 0.99980
2079.74334 0.99984
2078.31495 0.99984
2076.88655 0.99979
2075.45816 0.99972
2074.02976 0.99962
2072.60137 0.99952
2071.17297 0.99942
2069.74458 0.99934
2068.31618 0.99928
2066.88779 0.99926
2065.45939 0.99926
2064.03099 0.99929
2062.60260 0.99933
2061.17420 0.99936
2059.74581 0.99938
2058.31741 0.99939
2056.88902 0.99939
2055.46062 0.99938
2054.03223 0.99938
2052.60383 0.99938
2051.17544 0.99939
2049.74704 0.99941
2048.31865 0.99947
2046.89025 0.99954
2045.46186 0.99964
2044.03346 0.99975
2042.60507 0.99984
2041.17667 0.99990
2039.74828 0.99992
2038.31988 0.99989
2036.89149 0.99981
2035.46309 0.99968
2034.03470 0.99952
2032.60630 0.99936
2031.17791 0.99923
2029.74951 0.99916
2028.32112 0.99915
2026.89272 0.99921
2025.46433 0.99932
2024.03593 0.99945
2022.60754 0.99958
2021.17914 0.99968
2019.75075 0.99974
2018.32235 0.99976
2016.89395 0.99973
2015.46556 0.99965
2014.03716 0.99955
2012.60877 0.99942
2011.18037 0.99929
2009.75198 0.99918
2008.32358 0.99911
2006.89519 0.99907
2005.46679 0.99905
2004.03840 0.99903
2002.61000 0.99900
2001.18161 0.99897
1999.75321 0.99892
1998.32482 0.99886
1996.89642 0.99880
1995.46803 0.99874
1994.03963 0.99871
1992.61124 0.99872
1991.18284 0.99878
1989.75445 0.99886
1988.32605 0.99896
1986.89766 0.99906
1985.46926 0.99917
1984.04087 0.99925
1982.61247 0.99931
1981.18408 0.99934
1979.75568 0.99934
1978.32729 0.99933
1976.89889 0.99932
1975.47050 0.99932
1974.04210 0.99935
1972.61371 0.99940
1971.18531 0.99948
1969.75691 0.99959
1968.32852 0.99972
1966.90012 0.99982
1965.47173 0.99990
1964.04333 0.99994
1962.61494 0.99993
1961.18654 0.99989
1959.75815 0.99981
1958.32975 0.99971
1956.90136 0.99960
1955.47296 0.99947
1954.04457 0.99936
1952.61617 0.99925
1951.18778 0.99914
1949.75938 0.99905
1948.33099 0.99897
1946.90259 0.99890
1945.47420 0.99882
1944.04580 0.99875
1942.61741 0.99869
1941.18901 0.99864
1939.76062 0.99861
1938.33222 0.99862
1936.90383 0.99866
1935.47543 0.99874
1934.04704 0.99884
1932.61864 0.99897
1931.19025 0.99911
1929.76185 0.99924
1928.33346 0.99936
1926.90506 0.99946
1925.47667 0.99954
1924.04827 0.99960
1922.61987 0.99962
1921.19148 0.99962
1919.76308 0.99960
1918.33469 0.99955
1916.90629 0.99949
1915.47790 0.99942
1914.04950 0.99935
1912.62111 0.99929
1911.19271 0.99924
1909.76432 0.99920
1908.33592 0.99917
1906.90753 0.99915
1905.47913 0.99913
1904.05074 0.99913
1902.62234 0.99914
1901.19395 0.99915
1899.76555 0.99916
1898.33716 0.99917
1896.90876 0.99919
1895.48037 0.99921
1894.05197 0.99922
1892.62358 0.99922
1891.19518 0.99922
1889.76679 0.99923
1888.33839 0.99923
1886.91000 0.99925
1885.48160 0.99928
1884.05321 0.99931
1882.62481 0.99936
1881.19642 0.99942
1879.76802 0.99946
1878.33963 0.99951
1876.91123 0.99953
1875.48283 0.99955
1874.05444 0.99955
1872.62604 0.99954
1871.19765 0.99953
1869.76925 0.99951
1868.34086 0.99950
1866.91246 0.99949
1865.48407 0.99949
1864.05567 0.99950
1862.62728 0.99951
1861.19888 0.99953
1859.77049 0.99955
1858.34209 0.99956
1856.91370 0.99957
1855.48530 0.99957
1854.05691 0.99957
1852.62851 0.99956
1851.20012 0.99954
1849.77172 0.99953
1848.34333 0.99951
1846.91493 0.99948
1845.48654 0.99946
1844.05814 0.99943
1842.62975 0.99941
1841.20135 0.99939
1839.77296 0.99938
1838.34456 0.99937
1836.91617 0.99938
1835.48777 0.99939
1834.05938 0.99940
1832.63098 0.99941
1831.20258 0.99942
1829.77419 0.99942
1828.34579 0.99942
1826.91740 0.99941
1825.48900 0.99940
1824.06061 0.99938
1822.63221 0.99937
1821.20382 0.99936
1819.77542 0.99937
1818.34703 0.99938
1816.91863 0.99940
1815.49024 0.99943
1814.06184 0.99947
1812.63345 0.99950
1811.20505 0.99952
1809.77666 0.99952
1808.34826 0.99950
1806.91987 0.99948
1805.49147 0.99945
1804.06308 0.99941
1802.63468 0.99938
1801.20629 0.99936
1799.77789 0.99934
1798.34950 0.99934
1796.92110 0.99935
1795.49271 0.99937
1794.06431 0.99940
1792.63592 0.99944
1791.20752 0.99948
1789.77913 0.99953
1788.35073 0.99958
1786.92234 0.99962
1785.49394 0.99965
1784.06554 0.99967
1782.63715 0.99969
1781.20875 0.99969
1779.78036 0.99969
1778.35196 0.99967
1776.92357 0.99965
1775.49517 0.99961
1774.06678 0.99957
1772.63838 0.99953
1771.20999 0.99948
1769.78159 0.99945
1768.35320 0.99942
1766.92480 0.99941
1765.49641 0.99940
1764.06801 0.99941
1762.63962 0.99942
1761.21122 0.99944
1759.78283 0.99946
1758.35443 0.99950
1756.92604 0.99953
1755.49764 0.99957
1754.06925 0.99961
1752.64085 0.99964
1751.21246 0.99966
1749.78406 0.99967
1748.35567 0.99967
1746.92727 0.99966
1745.49888 0.99965
1744.07048 0.99963
1742.64209 0.99962
1741.21369 0.99962
1739.78530 0.99962
1738.35690 0.99963
1736.92850 0.99965
1735.50011 0.99967
1734.07171 0.99969
1732.64332 0.99971
1731.21492 0.99972
1729.78653 0.99973
1728.35813 0.99974
1726.92974 0.99975
1725.50134 0.99976
1724.07295 0.99978
1722.64455 0.99980
1721.21616 0.99983
1719.78776 0.99986
1718.35937 0.99991
1716.93097 0.99995
1715.50258 0.99998
1714.07418 1.00000
1712.64579 1.00000
1711.21739 1.00000
1709.78900 0.99998
1708.36060 0.99995
1706.93221 0.99991
1705.50381 0.99985
1704.07542 0.99978
1702.64702 0.99969
1701.21863 0.99959
1699.79023 0.99947
1698.36184 0.99934
1696.93344 0.99918
1695.50505 0.99900
1694.07665 0.99879
1692.64826 0.99854
1691.21986 0.99827
1689.79146 0.99797
1688.36307 0.99766
1686.93467 0.99733
1685.50628 0.99700
1684.07788 0.99666
1682.64949 0.99633
1681.22109 0.99600
1679.79270 0.99566
1678.36430 0.99531
1676.93591 0.99493
1675.50751 0.99452
1674.07912 0.99404
1672.65072 0.99351
1671.22233 0.99291
1669.79393 0.99225
1668.36554 0.99154
1666.93714 0.99079
1665.50875 0.99003
1664.08035 0.98929
1662.65196 0.98860
1661.22356 0.98798
1659.79517 0.98747
1658.36677 0.98707
1656.93838 0.98681
1655.50998 0.98669
1654.08159 0.98671
1652.65319 0.98683
1651.22480 0.98706
1649.79640 0.98737
1648.36801 0.98774
1646.93961 0.98816
1645.51122 0.98861
1644.08282 0.98908
1642.65442 0.98956
1641.22603 0.99004
1639.79763 0.99053
1638.36924 0.99102
1636.94084 0.99151
1635.51245 0.99201
1634.08405 0.99252
1632.65566 0.99304
1631.22726 0.99356
1629.79887 0.99408
1628.37047 0.99459
1626.94208 0.99509
1625.51368 0.99556
1624.08529 0.99599
1622.65689 0.99637
1621.22850 0.99670
1619.80010 0.99698
1618.37171 0.99720
1616.94331 0.99736
1615.51492 0.99749
1614.08652 0.99758
1612.65813 0.99763
1611.22973 0.99766
1609.80134 0.99767
1608.37294 0.99766
1606.94455 0.99761
1605.51615 0.99754
1604.08776 0.99744
1602.65936 0.99730
1601.23097 0.99714
1599.80257 0.99697
1598.37418 0.99681
1596.94578 0.99668
1595.51738 0.99659
1594.08899 0.99656
1592.66059 0.99659
1591.23220 0.99668
1589.80380 0.99680
1588.37541 0.99696
1586.94701 0.99713
1585.51862 0.99730
1584.09022 0.99744
1582.66183 0.99755
1581.23343 0.99761
1579.80504 0.99761
1578.37664 0.99756
1576.94825 0.99745
1575.51985 0.99730
1574.09146 0.99711
1572.66306 0.99688
1571.23467 0.99664
1569.80627 0.99637
1568.37788 0.99607
1566.94948 0.99575
1565.52109 0.99540
1564.09269 0.99500
1562.66430 0.99455
1561.23590 0.99404
1559.80751 0.99348
1558.37911 0.99288
1556.95072 0.99223
1555.52232 0.99157
1554.09393 0.99092
1552.66553 0.99030
1551.23714 0.98975
1549.80874 0.98929
1548.38034 0.98894
1546.95195 0.98872
1545.52355 0.98863
1544.09516 0.98866
1542.66676 0.98881
1541.23837 0.98904
1539.80997 0.98933
1538.38158 0.98967
1536.95318 0.99005
1535.52479 0.99045
1534.09639 0.99084
1532.66800 0.99123
1531.23960 0.99160
1529.81121 0.99195
1528.38281 0.99226
1526.95442 0.99255
1525.52602 0.99280
1524.09763 0.99303
1522.66923 0.99324
1521.24084 0.99344
1519.81244 0.99364
1518.38405 0.99385
1516.95565 0.99407
1515.52726 0.99432
1514.09886 0.99458
1512.67047 0.99486
1511.24207 0.99515
1509.81368 0.99543
1508.38528 0.99570
1506.95689 0.99595
1505.52849 0.99618
1504.10010 0.99639
1502.67170 0.99657
1501.24330 0.99673
1499.81491 0.99687
1498.38651 0.99700
1496.95812 0.99713
1495.52972 0.99725
1494.10133 0.99735
1492.67293 0.99745
1491.24454 0.99752
1489.81614 0.99757
1488.38775 0.99759
1486.95935 0.99759
1485.53096 0.99756
1484.10256 0.99750
1482.67417 0.99741
1481.24577 0.99731
1479.81738 0.99719
1478.38898 0.99705
1476.96059 0.99690
1475.53219 0.99675
1474.10380 0.99660
1472.67540 0.99645
1471.24701 0.99631
1469.81861 0.99619
1468.39022 0.99609
1466.96182 0.99601
1465.53343 0.99595
1464.10503 0.99592
1462.67664 0.99591
1461.24824 0.99591
1459.81985 0.99593
1458.39145 0.99596
1456.96306 0.99600
1455.53466 0.99603
1454.10626 0.99606
1452.67787 0.99608
1451.24947 0.99610
1449.82108 0.99611
1448.39268 0.99610
1446.96429 0.99608
1445.53589 0.99606
1444.10750 0.99603
1442.67910 0.99600
1441.25071 0.99598
1439.82231 0.99597
1438.39392 0.99597
1436.96552 0.99599
1435.53713 0.99601
1434.10873 0.99604
1432.68034 0.99608
1431.25194 0.99610
1429.82355 0.99613
1428.39515 0.99614
1426.96676 0.99614
1425.53836 0.99612
1424.10997 0.99609
1422.68157 0.99605
1421.25318 0.99601
1419.82478 0.99596
1418.39639 0.99591
1416.96799 0.99586
1415.53960 0.99581
1414.11120 0.99577
1412.68281 0.99573
1411.25441 0.99569
1409.82602 0.99566
1408.39762 0.99563
1406.96922 0.99563
1405.54083 0.99565
1404.11243 0.99569
1402.68404 0.99575
1401.25564 0.99582
1399.82725 0.99592
1398.39885 0.99602
1396.97046 0.99612
1395.54206 0.99622
1394.11367 0.99631
1392.68527 0.99639
1391.25688 0.99647
1389.82848 0.99654
1388.40009 0.99660
1386.97169 0.99667
1385.54330 0.99673
1384.11490 0.99680
1382.68651 0.99688
1381.25811 0.99695
1379.82972 0.99703
1378.40132 0.99710
1376.97293 0.99716
1375.54453 0.99721
1374.11614 0.99724
1372.68774 0.99726
1371.25935 0.99726
1369.83095 0.99726
1368.40256 0.99725
1366.97416 0.99724
1365.54577 0.99723
1364.11737 0.99723
1362.68898 0.99723
1361.26058 0.99723
1359.83218 0.99723
1358.40379 0.99724
1356.97539 0.99724
1355.54700 0.99724
1354.11860 0.99724
1352.69021 0.99724
1351.26181 0.99725
1349.83342 0.99726
1348.40502 0.99727
1346.97663 0.99729
1345.54823 0.99731
1344.11984 0.99734
1342.69144 0.99736
1341.26305 0.99738
1339.83465 0.99739
1338.40626 0.99740
1336.97786 0.99740
1335.54947 0.99740
1334.12107 0.99740
1332.69268 0.99740
1331.26428 0.99740
1329.83589 0.99741
1328.40749 0.99743
1326.97910 0.99745
1325.55070 0.99746
1324.12231 0.99748
1322.69391 0.99750
1321.26552 0.99752
1319.83712 0.99755
1318.40873 0.99757
1316.98033 0.99760
1315.55194 0.99763
1314.12354 0.99766
1312.69514 0.99768
1311.26675 0.99770
1309.83835 0.99771
1308.40996 0.99771
1306.98156 0.99770
1305.55317 0.99769
1304.12477 0.99767
1302.69638 0.99765
1301.26798 0.99762
1299.83959 0.99759
1298.41119 0.99755
1296.98280 0.99750
1295.55440 0.99743
1294.12601 0.99735
1292.69761 0.99725
1291.26922 0.99714
1289.84082 0.99702
1288.41243 0.99690
1286.98403 0.99680
1285.55564 0.99672
1284.12724 0.99668
1282.69885 0.99666
1281.27045 0.99668
1279.84206 0.99672
1278.41366 0.99678
1276.98527 0.99685
1275.55687 0.99692
1274.12848 0.99698
1272.70008 0.99703
1271.27169 0.99706
1269.84329 0.99708
1268.41490 0.99709
1266.98650 0.99709
1265.55810 0.99708
1264.12971 0.99707
1262.70131 0.99704
1261.27292 0.99700
1259.84452 0.99693
1258.41613 0.99682
1256.98773 0.99669
1255.55934 0.99652
1254.13094 0.99632
1252.70255 0.99610
1251.27415 0.99586
1249.84576 0.99563
1248.41736 0.99542
1246.98897 0.99523
1245.56057 0.99507
1244.13218 0.99496
1242.70378 0.99490
1241.27539 0.99488
1239.84699 0.99490
1238.41860 0.99496
1236.99020 0.99506
1235.56181 0.99518
1234.13341 0.99533
1232.70502 0.99550
1231.27662 0.99568
1229.84823 0.99587
1228.41983 0.99607
1226.99144 0.99627
1225.56304 0.99647
1224.13465 0.99667
1222.70625 0.99686
1221.27786 0.99704
1219.84946 0.99722
1218.42106 0.99738
1216.99267 0.99753
1215.56427 0.99768
1214.13588 0.99781
1212.70748 0.99794
1211.27909 0.99806
1209.85069 0.99817
1208.42230 0.99828
1206.99390 0.99838
1205.56551 0.99847
1204.13711 0.99856
1202.70872 0.99864
1201.28032 0.99872
1199.85193 0.99881
1198.42353 0.99889
1196.99514 0.99897
1195.56674 0.99904
1194.13835 0.99911
1192.70995 0.99918
1191.28156 0.99924
1189.85316 0.99930
1188.42477 0.99935
1186.99637 0.99939
1185.56798 0.99942
1184.13958 0.99945
1182.71119 0.99947
1181.28279 0.99947
1179.85440 0.99947
1178.42600 0.99945
1176.99761 0.99941
1175.56921 0.99937
1174.14082 0.99932
1172.71242 0.99926
1171.28402 0.99919
1169.85563 0.99914
1168.42723 0.99909
1166.99884 0.99906
1165.57044 0.99904
1164.14205 0.99904
1162.71365 0.99906
1161.28526 0.99911
1159.85686 0.99918
1158.42847 0.99927
1157.00007 0.99937
1155.57168 0.99948
1154.14328 0.99959
1152.71489 0.99970
1151.28649 0.99980
1149.85810 0.99988
1148.42970 0.99995
1147.00131 0.99999
1145.57291 1.00000
1144.14452 0.99999
1142.71612 0.99996
1141.28773 0.99990
1139.85933 0.99981
1138.43094 0.99969
1137.00254 0.99955
1135.57415 0.99937
1134.14575 0.99916
1132.71736 0.99890
1131.28896 0.99861
1129.86057 0.99826
1128.43217 0.99787
1127.00378 0.99744
1125.57538 0.99697
1124.14698 0.99647
1122.71859 0.99596
1121.29019 0.99546
1119.86180 0.99500
1118.43340 0.99458
1117.00501 0.99424
1115.57661 0.99398
1114.14822 0.99383
1112.71982 0.99376
1111.29143 0.99380
1109.86303 0.99391
1108.43464 0.99409
1107.00624 0.99431
1105.57785 0.99455
1104.14945 0.99479
1102.72106 0.99501
1101.29266 0.99520
1099.86427 0.99536
1098.43587 0.99549
1097.00748 0.99558
1095.57908 0.99565
1094.15069 0.99569
1092.72229 0.99571
1091.29390 0.99572
1089.86550 0.99571
1088.43711 0.99570
1087.00871 0.99567
1085.58032 0.99564
1084.15192 0.99561
1082.72353 0.99558
1081.29513 0.99554
1079.86673 0.99551
1078.43834 0.99548
1077.00994 0.99544
1075.58155 0.99540
1074.15315 0.99534
1072.72476 0.99528
1071.29636 0.99519
1069.86797 0.99508
1068.43957 0.99494
1067.01118 0.99476
1065.58278 0.99455
1064.15439 0.99430
1062.72599 0.99401
1061.29760 0.99368
1059.86920 0.99329
1058.44081 0.99283
1057.01241 0.99232
1055.58402 0.99176
1054.15562 0.99114
1052.72723 0.99051
1051.29883 0.98987
1049.87044 0.98927
1048.44204 0.98874
1047.01365 0.98832
1045.58525 0.98802
1044.15686 0.98786
1042.72846 0.98786
1041.30007 0.98801
1039.87167 0.98829
1038.44328 0.98870
1037.01488 0.98919
1035.58649 0.98975
1034.15809 0.99036
1032.72969 0.99099
1031.30130 0.99164
1029.87290 0.99228
1028.44451 0.99292
1027.01611 0.99356
1025.58772 0.99419
1024.15932 0.99480
1022.73093 0.99538
1021.30253 0.99593
1019.87414 0.99643
1018.44574 0.99688
1017.01735 0.99727
1015.58895 0.99759
1014.16056 0.99783
1012.73216 0.99800
1011.30377 0.99808
1009.87537 0.99809
1008.44698 0.99802
1007.01858 0.99788
1005.59019 0.99766
1004.16179 0.99738
1002.73340 0.99706
1001.30500 0.99672
999.87661 0.99639
998.44821 0.99608
997.01982 0.99582
995.59142 0.99563
994.16303 0.99552
992.73463 0.99551
991.30624 0.99558
989.87784 0.99572
988.44945 0.99593
987.02105 0.99617
985.59265 0.99643
984.16426 0.99669
982.73586 0.99694
981.30747 0.99717
979.87907 0.99738
978.45068 0.99757
977.02228 0.99774
975.59389 0.99791
974.16549 0.99809
972.73710 0.99828
971.30870 0.99847
969.88031 0.99867
968.45191 0.99886
967.02352 0.99904
965.59512 0.99921
964.16673 0.99934
962.73833 0.99946
961.30994 0.99954
959.88154 0.99960
958.45315 0.99964
957.02475 0.99966
955.59636 0.99968
954.16796 0.99969
952.73957 0.99970
951.31117 0.99970
949.88278 0.99971
948.45438 0.99971
947.02599 0.99969
945.59759 0.99966
944.16920 0.99959
942.74080 0.99949
941.31241 0.99935
939.88401 0.99917
938.45561 0.99896
937.02722 0.99872
935.59882 0.99846
934.17043 0.99820
932.74203 0.99795
931.31364 0.99772
929.88524 0.99752
928.45685 0.99736
927.02845 0.99726
925.60006 0.99721
924.17166 0.99722
922.74327 0.99727
921.31487 0.99738
919.88648 0.99752
918.45808 0.99769
917.02969 0.99788
915.60129 0.99806
914.17290 0.99825
912.74450 0.99841
911.31611 0.99856
909.88771 0.99868
908.45932 0.99877
907.03092 0.99884
905.60253 0.99888
904.17413 0.99890
902.74574 0.99891
901.31734 0.99892
899.88895 0.99894
898.46055 0.99897
897.03216 0.99901
895.60376 0.99907
894.17537 0.99914
892.74697 0.99921
891.31857 0.99929
889.89018 0.99936
888.46178 0.99941
887.03339 0.99944
885.60499 0.99945
884.17660 0.99944
882.74820 0.99940
881.31981 0.99934
879.89141 0.99926
878.46302 0.99915
877.03462 0.99903
875.60623 0.99891
874.17783 0.99878
872.74944 0.99865
871.32104 0.99852
869.89265 0.99839
868.46425 0.99825
867.03586 0.99811
865.60746 0.99795
864.17907 0.99779
862.75067 0.99761
861.32228 0.99745
859.89388 0.99730
858.46549 0.99716
857.03709 0.99706
855.60870 0.99698
854.18030 0.99695
852.75191 0.99695
851.32351 0.99697
849.89512 0.99702
848.46672 0.99707
847.03833 0.99712
845.60993 0.99717
844.18153 0.99720
842.75314 0.99722
841.32474 0.99723
839.89635 0.99724
838.46795 0.99724
837.03956 0.99724
835.61116 0.99725
834.18277 0.99727
832.75437 0.99730
831.32598 0.99734
829.89758 0.99738
828.46919 0.99743
827.04079 0.99747
825.61240 0.99750
824.18400 0.99753
822.75561 0.99756
821.32721 0.99758
819.89882 0.99760
818.47042 0.99761
817.04203 0.99761
815.61363 0.99761
814.18524 0.99759
812.75684 0.99757
811.32845 0.99753
809.90005 0.99750
808.47166 0.99747
807.04326 0.99744
805.61487 0.99741
804.18647 0.99738
802.75808 0.99736
801.32968 0.99734
799.90129 0.99732
798.47289 0.99731
797.04449 0.99729
795.61610 0.99728
794.18770 0.99728
792.75931 0.99727
791.33091 0.99725
789.90252 0.99722
788.47412 0.99718
787.04573 0.99712
785.61733 0.99707
784.18894 0.99702
782.76054 0.99697
781.33215 0.99694
779.90375 0.99691
778.47536 0.99687
777.04696 0.99684
775.61857 0.99679
774.19017 0.99674
772.76178 0.99668
771.33338 0.99661
769.90499 0.99654
768.47659 0.99645
767.04820 0.99636
765.61980 0.99625
764.19141 0.99614
762.76301 0.99603
761.33462 0.99592
759.90622 0.99581
758.47783 0.99571
757.04943 0.99562
755.62104 0.99554
754.19264 0.99548
752.76425 0.99543
751.33585 0.99540
749.90745 0.99539
748.47906 0.99540
747.05066 0.99543
745.62227 0.99549
744.19387 0.99557
742.76548 0.99566
741.33708 0.99577
739.90869 0.99588
738.48029 0.99600
737.05190 0.99612
735.62350 0.99625
734.19511 0.99637
732.76671 0.99648
731.33832 0.99656
729.90992 0.99660
728.48153 0.99660
727.05313 0.99655
725.62474 0.99648
724.19634 0.99639
722.76795 0.99629
721.33955 0.99620
719.91116 0.99613
718.48276 0.99610
717.05437 0.99610
715.62597 0.99616
714.19758 0.99625
712.76918 0.99637
711.34079 0.99649
709.91239 0.99660
708.48400 0.99666
707.05560 0.99665
705.62721 0.99657
704.19881 0.99640
702.77041 0.99617
701.34202 0.99590
699.91362 0.99560
698.48523 0.99532
697.05683 0.99507
695.62844 0.99487
694.20004 0.99473
692.77165 0.99465
691.34325 0.99463
689.91486 0.99464
688.48646 0.99468
687.05807 0.99472
685.62967 0.99475
684.20128 0.99471
682.77288 0.99461
681.34449 0.99442
679.91609 0.99417
678.48770 0.99389
677.05930 0.99362
675.63091 0.99337
674.20251 0.99318
672.77412 0.99306
671.34572 0.99302
669.91733 0.99305
668.48893 0.99316
667.06054 0.99330
665.63214 0.99347
664.20375 0.99366
662.77535 0.99385
661.34696 0.99402
659.91856 0.99416
658.49017 0.99428
657.06177 0.99438
655.63337 0.99447
654.20498 0.99455
652.77658 0.99464
651.34819 0.99473
649.91979 0.99482
648.49140 0.99492
647.06300 0.99500
645.63461 0.99506
644.20621 0.99510
642.77782 0.99512
641.34942 0.99515
639.92103 0.99519
638.49263 0.99527
637.06424 0.99539
635.63584 0.99555
634.20745 0.99576
632.77905 0.99599
631.35066 0.99623
629.92226 0.99646
628.49387 0.99665
627.06547 0.99678
625.63708 0.99685
624.20868 0.99685
622.78029 0.99678
621.35189 0.99665
619.92350 0.99649
618.49510 0.99633
617.06671 0.99619
615.63831 0.99609
614.20992 0.99604
612.78152 0.99606
611.35313 0.99614
609.92473 0.99627
608.49633 0.99641
607.06794 0.99654
605.63954 0.99666
604.21115 0.99675
602.78275 0.99682
601.35436 0.99688
599.92596 0.99694
598.49757 0.99701
597.06917 0.99709
595.64078 0.99717
594.21238 0.99726
592.78399 0.99733
591.35559 0.99740
589.92720 0.99746
588.49880 0.99752
587.07041 0.99756
585.64201 0.99761
584.21362 0.99767
582.78522 0.99774
581.35683 0.99781
579.92843 0.99789
578.50004 0.99796
577.07164 0.99801
575.64325 0.99803
574.21485 0.99801
572.78646 0.99793
571.35806 0.99778
569.92967 0.99758
568.50127 0.99733
567.07288 0.99707
565.64448 0.99682
564.21609 0.99661
562.78769 0.99645
561.35929 0.99637
559.93090 0.99636
558.50250 0.99639
557.07411 0.99644
555.64571 0.99648
554.21732 0.99651
552.78892 0.99655
551.36053 0.99659
549.93213 0.99664
548.50374 0.99669
547.07534 0.99678
545.64695 0.99694
544.21855 0.99716
542.79016 0.99741
541.36176 0.99766
539.93337 0.99785
538.50497 0.99796
537.07658 0.99796
535.64818 0.99779
534.21979 0.99744
532.79139 0.99693
531.36300 0.99631
529.93460 0.99571
528.50621 0.99519
527.07781 0.99484
525.64942 0.99471
524.22102 0.99485
522.79263 0.99524
521.36423 0.99583
519.93584 0.99653
518.50744 0.99722
517.07905 0.99781
515.65065 0.99827
514.22225 0.99857
512.79386 0.99868
511.36546 0.99861
509.93707 0.99842
508.50867 0.99819
507.08028 0.99799
505.65188 0.99783
504.22349 0.99772
502.79509 0.99767
501.36670 0.99766
499.93830 0.99767
498.50991 0.99764
497.08151 0.99752
495.65312 0.99725
494.22472 0.99686
492.79633 0.99638
491.36793 0.99583
489.93954 0.99526
488.51114 0.99474
487.08275 0.99437
485.65435 0.99425
484.22596 0.99441
482.79756 0.99486
481.36917 0.99555
479.94077 0.99643
478.51238 0.99740
477.08398 0.99836
475.65559 0.99916
474.22719 0.99971
472.79880 0.99999
471.37040 1.00000
469.94201 0.99985
468.51361 0.99955
467.08521 0.99921
465.65682 0.99892
464.22842 0.99875
462.80003 0.99874
461.37163 0.99887
459.94324 0.99908
458.51484 0.99933
457.08645 0.99953
455.65805 0.99962
454.22966 0.99955
452.80126 0.99929
451.37287 0.99889
449.94447 0.99841
448.51608 0.99797
447.08768 0.99764
445.65929 0.99751
444.23089 0.99759
442.80250 0.99784
441.37410 0.99819
439.94571 0.99857
438.51731 0.99891
437.08892 0.99915
435.66052 0.99926
434.23213 0.99922
432.80373 0.99906
431.37534 0.99879
429.94694 0.99843
428.51855 0.99803
427.09015 0.99762
425.66176 0.99723
424.23336 0.99689
422.80497 0.99664
421.37657 0.99652
419.94817 0.99654
418.51978 0.99679
417.09138 0.99719
415.66299 0.99772
414.23459 0.99833
412.80620 0.99899
411.37780 0.99969
409.94941 0.99973
408.52101 0.99977
407.09262 0.99981
405.66422 0.99985
404.23583 0.99988
402.80743 0.99992
401.37904 0.99996
399.95064 1.00000
